window_s,t_s_center,RR_ms_mean,RR_ms_median,RR_ms_sd,RR_ms_mad
30,15.6875,767.2008547008547,775.0,48.310069711267985,8.333333333333258
30,20.6875,770.7264957264957,770.8333333333334,13.802305467831097,8.333333333333258
30,25.6875,769.9786324786324,770.8333333333334,13.692379506871834,8.333333333333258
30,30.6875,770.6196581196582,770.8333333333334,13.718022290131925,8.333333333333258
30,35.6875,770.940170940171,770.8333333333334,11.52986759480073,8.333333333333258
30,40.6875,766.8803418803419,766.6666666666667,12.999828424303468,8.333333333333258
30,45.6875,762.9166666666667,764.5833333333334,12.43931136504218,6.250000000000114
30,50.6875,766.3461538461537,770.8333333333334,13.224080054860007,8.333333333333258
30,55.6875,765.5982905982906,766.6666666666667,13.131627702758593,8.333333333333258
30,60.6875,764.4230769230769,766.6666666666667,13.54701830305415,8.333333333333258
30,65.6875,764.2708333333334,766.6666666666667,13.306848027085707,8.333333333333258
30,70.6875,765.1709401709402,766.6666666666667,13.018738585438134,8.333333333333258
30,75.6875,759.9358974358975,762.5,17.35464341964773,12.5
30,80.6875,752.2916666666667,754.1666666666666,17.34593353660767,16.66666666666663
30,85.6875,741.7708333333334,745.8333333333334,108.7823023218072,16.666666666666742
30,90.6875,737.5,737.5,119.53323573150884,16.66666666666663
30,95.6875,729.4871794871794,733.3333333333333,134.04457735376218,12.5
30,100.6875,721.6666666666667,729.1666666666666,152.79199827491664,8.333333333333371
30,105.6875,716.6666666666666,729.1666666666666,191.9608249964908,8.333333333333371
30,110.6875,697.2222222222223,572.9166666666666,295.91743718414045,49.99999999999994
30,130.6875,575.0,575.0,29.462782549439456,20.833333333333314
30,135.6875,619.4444444444443,595.8333333333334,143.2660937246183,54.16666666666663
30,140.6875,634.0686274509803,595.8333333333334,139.57738866474966,54.16666666666674
30,145.6875,641.6666666666666,608.3333333333333,125.36405319441985,62.5
30,150.6875,626.0057471264367,608.3333333333333,124.54109797508022,66.66666666666663
30,155.6875,639.3518518518518,608.3333333333333,140.04833506758598,72.91666666666657
30,160.6875,663.9880952380952,629.1666666666667,151.71451667611487,93.75000000000006
30,165.6875,676.6260162601626,650.0,154.0705726665174,104.16666666666674
30,170.6875,677.3958333333333,654.1666666666667,163.54144550586602,102.08333333333331
30,175.6875,698.931623931624,683.3333333333334,176.84831656825133,112.50000000000011
30,180.6875,723.6111111111111,695.8333333333333,166.08553836018913,70.83333333333331
30,185.6875,718.2539682539683,700.0,154.6532980542123,45.833333333333314
30,190.6875,707.4404761904761,704.1666666666667,139.4480011168531,39.58333333333337
30,195.6875,720.1219512195123,708.3333333333334,136.16747768215353,33.33333333333337
30,200.6875,725.0,704.1666666666667,126.97958246562176,35.41666666666674
30,205.6875,724.7967479674796,708.3333333333334,142.87764050342713,37.500000000000114
30,210.6875,712.4999999999999,695.8333333333333,136.48298123453586,41.66666666666663
30,215.6875,739.329268292683,695.8333333333333,150.5489053421811,41.66666666666674
30,220.6875,751.7708333333334,700.0,158.87471406274358,45.83333333333337
30,225.6875,727.5793650793652,691.6666666666666,156.65280702444673,52.08333333333326
30,230.6875,725.1016260162602,700.0,158.5811870499741,58.33333333333326
30,235.6875,725.0,727.0833333333333,129.6656373399486,50.00000000000006
30,240.6875,727.0833333333334,743.75,133.12117902960847,47.916666666666686
30,245.6875,699.9031007751938,741.6666666666667,116.35263991656183,41.66666666666663
30,250.6875,704.84496124031,725.0,130.72197968468674,54.16666666666663
30,255.6875,718.7500000000001,731.25,133.88241235783505,52.08333333333337
30,260.6875,739.939024390244,720.8333333333334,136.84495360777203,54.16666666666663
30,265.6875,730.4878048780488,691.6666666666666,144.69027932412843,50.000000000000114
30,270.6875,726.219512195122,683.3333333333334,162.05399237010306,54.16666666666674
30,275.6875,737.2916666666666,683.3333333333334,163.1819189592207,29.166666666666742
30,280.6875,734.8958333333333,679.1666666666667,162.25103517463967,25.000000000000114
30,285.6875,743.75,687.5,174.01022500002233,35.416666666666686
30,290.6875,729.369918699187,679.1666666666667,169.86757306222037,29.166666666666742
30,295.6875,751.25,689.5833333333333,180.27064964243934,39.58333333333326
30,300.6875,771.9017094017094,695.8333333333333,167.65528595687564,41.66666666666663
30,305.6875,763.125,702.0833333333334,164.71223179228159,45.833333333333314
30,310.6875,735.4674796747968,695.8333333333333,160.21394645352,45.83333333333326
30,315.6875,737.8048780487806,704.1666666666667,148.76047536615803,50.000000000000114
30,320.6875,752.8125,722.9166666666667,146.8429262730716,50.00000000000006
30,325.6875,726.4227642276422,720.8333333333334,130.83800998839587,37.499999999999886
30,330.6875,706.9767441860465,712.5,120.77763128484065,41.66666666666663
30,335.6875,716.6666666666666,704.1666666666667,128.0733296895875,37.500000000000114
30,340.6875,727.6785714285713,704.1666666666667,122.860488845351,31.250000000000114
30,345.6875,741.1458333333333,704.1666666666667,145.69189569849863,29.166666666666742
30,350.6875,731.910569105691,700.0,140.24287512879303,29.16666666666663
30,355.6875,733.3333333333333,687.5,148.30641141456647,25.0
30,360.6875,745.2083333333333,695.8333333333333,158.28707713889273,27.083333333333314
30,365.6875,729.6626984126984,695.8333333333333,161.15690097490818,33.33333333333337
30,370.6875,729.1666666666665,691.6666666666666,166.29124383976975,37.5
30,375.6875,704.84496124031,691.6666666666666,144.5090960106889,37.5
30,380.6875,698.7403100775192,691.6666666666666,146.45427579028222,41.66666666666663
30,385.6875,717.7579365079365,693.75,157.60169944255946,41.666666666666686
30,390.6875,719.8170731707318,691.6666666666666,150.81601099830786,37.5
30,395.6875,734.0625,691.6666666666666,159.40060754557186,35.41666666666663
30,400.6875,730.9959349593496,704.1666666666667,149.80904738201482,41.66666666666674
30,405.6875,724.1869918699188,708.3333333333334,143.7868899289749,45.83333333333337
30,410.6875,736.6869918699188,720.8333333333334,132.7631673482372,50.0
30,415.6875,723.678861788618,733.3333333333333,109.20100853118363,37.500000000000114
30,420.6875,720.2380952380952,739.5833333333334,106.15608964974702,33.333333333333314
30,425.6875,714.8809523809524,743.75,79.62343016379769,22.916666666666686
30,430.6875,731.0416666666667,747.9166666666667,87.9032729701255,14.583333333333485
30,435.6875,754.7916666666666,754.1666666666666,108.63104228340232,18.750000000000057
30,440.6875,748.3333333333333,745.8333333333334,122.999664141482,27.083333333333314
30,445.6875,761.0416666666667,747.9166666666667,143.8666224562878,89.58333333333337
30,450.6875,776.388888888889,720.8333333333334,154.99815285323317,62.5
30,455.6875,781.359649122807,685.4166666666667,158.21396888209057,43.74999999999994
30,460.6875,761.6666666666667,666.6666666666666,160.4342175991088,20.833333333333258
30,465.6875,735.670731707317,658.3333333333334,150.4768138645955,20.83333333333337
30,470.6875,721.1382113821138,658.3333333333334,141.85768446677972,16.66666666666663
30,475.6875,700.6944444444443,654.1666666666666,123.40416509568455,18.75
30,480.6875,701.3565891472867,654.1666666666666,121.6438366349224,16.66666666666663
30,485.6875,713.856589147287,650.0,132.561384310482,16.666666666666742
30,490.6875,726.0162601626016,654.1666666666666,141.21797967876768,20.83333333333337
30,495.6875,729.369918699187,654.1666666666666,139.28123782973108,16.66666666666663
30,500.6875,749.8958333333334,658.3333333333334,152.1231726884613,16.66666666666663
30,505.6875,756.6666666666667,662.5,150.99621700512085,16.66666666666663
30,510.6875,759.1880341880342,662.5,152.50461204552698,16.66666666666663
30,515.6875,750.0,660.4166666666667,147.74238860365494,10.416666666666742
30,520.6875,754.7916666666667,666.6666666666666,149.78780694122636,16.66666666666663
30,525.6875,778.6184210526314,685.4166666666667,160.20166958174588,27.08333333333337
30,530.6875,765.0641025641024,687.5,163.3374042429697,29.16666666666663
30,535.6875,764.4230769230768,687.5,168.84228620619902,33.33333333333337
30,540.6875,735.1626016260163,683.3333333333334,156.43891019165028,25.0
30,545.6875,734.5528455284552,687.5,172.9624535324887,45.83333333333326
30,550.6875,715.9722222222223,679.1666666666667,167.08513691083684,47.9166666666668
30,555.6875,708.8178294573644,670.8333333333333,163.0693356198988,45.83333333333326
30,560.6875,722.2222222222222,672.9166666666666,171.0220221744966,72.91666666666669
30,565.6875,735.060975609756,687.5,177.67053527721205,54.16666666666674
30,570.6875,769.8717948717949,700.0,191.73926337401073,95.83333333333337
30,575.6875,770.4059829059829,700.0,175.60410265621815,54.16666666666663
30,580.6875,763.0341880341879,700.0,175.0631138465771,50.0
30,585.6875,749.9999999999999,700.0,173.01736075465698,43.75
30,590.6875,729.7764227642276,695.8333333333333,153.44018292407094,29.166666666666742
30,595.6875,711.904761904762,681.25,140.92215721495103,37.49999999999994
30,600.6875,693.9922480620154,670.8333333333333,125.50922178585725,37.5
30,605.6875,693.1201550387597,650.0,127.53994770796739,20.833333333333258
30,610.6875,716.9791666666667,652.0833333333333,146.09526995225292,18.75
30,615.6875,722.7864583333334,650.0,143.99565800387708,16.666666666666742
30,620.6875,737.3333333333335,650.0,159.74552970039338,16.666666666666742
30,625.6875,753.7037037037038,647.9166666666667,170.1948187382476,20.833333333333314
30,630.6875,771.5909090909091,670.8333333333333,185.70266502659513,75.00000000000011
30,635.6875,827.0833333333334,872.9166666666667,239.46555075835022,145.83333333333331
30,685.6875,1214.583333333333,1214.583333333333,191.50808657135687,135.41666666666686
30,690.6875,1214.583333333333,1214.583333333333,191.50808657135687,135.41666666666686
30,695.6875,1214.583333333333,1214.583333333333,191.50808657135687,135.41666666666686
30,700.6875,1214.583333333333,1214.583333333333,191.50808657135687,135.41666666666686
30,705.6875,1214.583333333333,1214.583333333333,191.50808657135687,135.41666666666686
30,710.6875,772.2222222222222,606.25,357.0390060649561,110.41666666666663
30,715.6875,577.4305555555555,558.3333333333334,79.74189608720431,58.33333333333337
30,720.6875,633.9912280701755,633.3333333333333,115.564095219768,112.50000000000011
30,725.6875,650.3205128205129,641.6666666666667,119.04669413560117,116.66666666666669
30,730.6875,646.3235294117648,637.5,119.48157473986224,114.58333333333331
30,735.6875,662.6016260162601,683.3333333333334,114.97843927141284,104.16666666666663
30,740.6875,683.0492424242425,735.4166666666666,112.16177166338156,64.58333333333337
30,745.6875,711.5079365079365,745.8333333333334,101.89519133293955,47.91666666666663
30,750.6875,699.9031007751938,741.6666666666667,103.73118642807147,54.166666666666515
30,755.6875,696.124031007752,737.5,100.59099235067846,66.66666666666674
30,760.6875,689.6317829457365,716.6666666666666,98.11118003740818,66.66666666666674
30,765.6875,696.2209302325581,725.0,103.39321562978638,75.0
30,770.6875,682.2674418604652,670.8333333333333,109.14338864584995,112.49999999999989
30,775.6875,685.8901515151515,689.5833333333333,109.72281227632946,104.16666666666669
30,780.6875,696.0271317829457,741.6666666666667,111.26584026241983,70.83333333333326
30,785.6875,698.8372093023256,750.0,119.07701971762144,45.83333333333326
30,790.6875,723.5119047619048,770.8333333333334,114.40468863490361,27.083333333333258
30,795.6875,696.5116279069767,758.3333333333333,123.22794937462514,37.5
30,800.6875,713.3720930232558,758.3333333333333,110.47021814424781,29.166666666666742
30,805.6875,692.5387596899225,741.6666666666667,117.86711666989991,45.83333333333326
30,810.6875,682.4810606060605,733.3333333333333,117.14526537102965,52.08333333333343
30,815.6875,676.9886363636363,729.1666666666666,109.58021496271827,54.16666666666674
30,820.6875,669.1666666666666,716.6666666666666,111.24581481175511,54.16666666666674
30,825.6875,685.4166666666669,733.3333333333333,111.55575598106293,41.66666666666674
30,830.6875,673.6742424242424,722.9166666666666,117.01143937178612,60.41666666666674
30,835.6875,683.6174242424241,750.0,115.28598066510092,37.5
30,840.6875,681.060606060606,731.25,115.08287706216683,56.25
30,845.6875,692.8977272727271,754.1666666666666,114.92533367493863,35.416666666666686
30,850.6875,694.4767441860466,758.3333333333333,110.8704770162164,33.33333333333337
30,855.6875,704.3650793650793,764.5833333333333,109.05774208432032,43.750000000000114
30,860.6875,717.2619047619048,770.8333333333334,106.65750178397344,41.66666666666663
30,865.6875,736.0772357723577,770.8333333333334,109.50729996951101,41.66666666666663
30,870.6875,756.6239316239316,791.6666666666666,99.36162259033752,25.0
30,875.6875,758.5470085470085,795.8333333333333,104.62595551917838,25.0
30,880.6875,763.8888888888887,800.0,116.52299005979735,29.16666666666663
30,885.6875,767.8418803418803,804.1666666666667,117.83542361925451,29.16666666666663
30,890.6875,769.6581196581196,808.3333333333334,116.86210415277719,25.0
30,895.6875,767.8418803418803,816.6666666666666,114.43650368356523,20.83333333333337
30,900.6875,753.5416666666666,814.5833333333333,126.52400732746109,18.750000000000114
30,905.6875,744.1056910569106,808.3333333333334,133.176912184599,29.16666666666663
30,910.6875,753.6458333333333,808.3333333333334,112.93713544884301,20.83333333333337
30,915.6875,743.089430894309,804.1666666666667,117.90860453923727,25.0
30,920.6875,736.9791666666666,795.8333333333333,120.87638306217528,33.33333333333337
30,925.6875,723.2723577235772,783.3333333333334,125.07628092542369,41.66666666666663
30,930.6875,725.3968253968254,781.25,121.2507142570025,35.41666666666663
30,935.6875,734.375,783.3333333333334,115.14093154395233,37.499999999999886
30,940.6875,720.9349593495934,779.1666666666666,123.66821022199763,41.66666666666663
30,945.6875,727.3373983739837,783.3333333333334,116.67428836892755,37.499999999999886
30,950.6875,706.1046511627907,754.1666666666666,124.72969728680901,58.33333333333337
30,955.6875,694.6022727272725,739.5833333333334,133.4924545473308,74.99999999999994
30,960.6875,687.4031007751938,729.1666666666666,136.16927117906113,79.16666666666674
30,965.6875,696.1174242424242,739.5833333333334,132.9281565568946,74.99999999999994
30,970.6875,693.655303030303,733.3333333333333,133.2742378619507,75.00000000000011
30,975.6875,673.0113636363636,689.5833333333334,134.7355069928075,108.33333333333326
30,980.6875,691.7635658914728,733.3333333333333,132.82855955532497,70.83333333333326
30,985.6875,710.4166666666666,762.5,115.88461022145634,41.666666666666686
30,990.6875,717.8571428571429,756.25,106.5967985826047,43.75
30,995.6875,703.8690476190476,743.75,122.17815158979987,43.75
30,1000.6875,710.7142857142857,754.1666666666666,120.27359441921574,35.416666666666686
30,1005.6875,718.8492063492064,756.25,112.67202330992876,33.333333333333314
30,1010.6875,707.3643410852712,745.8333333333334,112.20507052538115,41.66666666666663
30,1015.6875,699.7093023255813,729.1666666666666,126.6504641528667,58.33333333333337
30,1020.6875,693.9922480620155,716.6666666666666,127.51213218286563,70.83333333333337
30,1025.6875,669.6969696969697,666.6666666666667,119.07252080241668,104.16666666666663
30,1030.6875,674.7159090909091,675.0,121.41632192331838,81.25
30,1035.6875,674.1666666666666,683.3333333333334,118.14405476691441,66.66666666666663
30,1040.6875,675.094696969697,697.9166666666667,120.86336380492622,62.5
30,1045.6875,665.8333333333334,687.5,104.84476258938375,58.33333333333337
30,1050.6875,656.8840579710146,681.25,109.92497929741585,64.58333333333337
30,1055.6875,686.2962962962963,725.0,102.64656858135284,29.16666666666663
30,1060.6875,672.9629629629628,725.0,94.36298849168529,29.16666666666663
30,1065.6875,657.3148148148149,725.0,100.27249629338469,33.33333333333326
30,1070.6875,672.1296296296296,725.0,116.2934446293023,29.16666666666663
30,1075.6875,666.9444444444445,725.0,118.90573254609401,29.16666666666663
30,1080.6875,695.5426356589147,733.3333333333333,126.18943145057406,12.500000000000114
30,1085.6875,685.8527131782945,729.1666666666666,128.12928123858876,16.666666666666742
30,1090.6875,681.9128787878789,727.0833333333333,129.1274108321404,20.833333333333428
30,1095.6875,706.686046511628,729.1666666666666,133.62177238247037,20.83333333333337
30,1100.6875,692.0542635658916,733.3333333333333,121.42988331575154,16.666666666666742
30,1105.6875,694.3798449612403,733.3333333333333,121.96000366577269,16.666666666666742
30,1110.6875,689.5348837209303,729.1666666666666,131.66858828284066,29.16666666666663
30,1115.6875,704.0697674418604,725.0,148.9171906553973,50.0
30,1120.6875,734.8577235772358,733.3333333333333,165.67086916607852,58.33333333333326
30,1125.6875,708.5317460317459,714.5833333333334,167.874062513027,66.66666666666674
30,1130.6875,718.452380952381,714.5833333333334,176.6212715328435,91.66666666666674
30,1135.6875,741.3541666666666,720.8333333333334,179.1539637218124,50.000000000000114
30,1140.6875,725.5952380952382,720.8333333333334,162.54968864191716,39.58333333333326
30,1145.6875,702.4224806201549,712.5,148.5997044228103,41.66666666666663
30,1150.6875,696.8023255813954,716.6666666666666,144.47736158421472,29.166666666666742
30,1155.6875,714.5833333333333,718.75,131.80735639766854,22.916666666666742
30,1160.6875,713.4920634920634,714.5833333333333,111.85947407750317,18.75
30,1165.6875,705.0387596899225,712.5,96.14149100469008,16.666666666666742
30,1170.6875,720.3252032520325,708.3333333333334,131.0520833232362,16.666666666666742
30,1175.6875,743.5416666666667,714.5833333333333,146.28881859969152,18.75
30,1180.6875,727.7439024390244,708.3333333333334,138.85572097185073,16.666666666666742
30,1185.6875,733.1300813008129,712.5,151.6917081533899,29.166666666666742
30,1190.6875,726.6260162601625,716.6666666666666,158.98134403343528,54.16666666666674
30,1195.6875,714.3849206349207,710.4166666666667,168.20479874222448,66.66666666666657
30,1200.6875,703.7790697674419,720.8333333333334,140.24677665108322,54.16666666666663
30,1205.6875,687.8787878787879,718.75,137.47744171842274,56.25
30,1210.6875,686.0795454545454,737.5,129.53948191767316,37.5
30,1215.6875,658.605072463768,672.9166666666666,120.08999381994174,85.41666666666663
30,1220.6875,649.822695035461,637.5,121.5929318173602,104.16666666666674
30,1225.6875,668.425925925926,691.6666666666666,124.00961470725919,87.5
30,1230.6875,673.3333333333334,691.6666666666666,127.878473717839,95.83333333333337
30,1235.6875,690.0193798449613,758.3333333333333,113.20743012067223,45.833333333333485
30,1240.6875,696.6085271317829,770.8333333333334,113.65608154712503,33.33333333333337
30,1245.6875,723.3739837398374,775.0,102.43933693009491,16.66666666666663
30,1250.6875,745.4166666666666,779.1666666666666,85.27022572980205,12.5
30,1255.6875,733.9430894308942,775.0,90.26177677668144,12.5
30,1260.6875,715.3769841269842,775.0,100.09517868560265,16.66666666666663
30,1265.6875,687.405303030303,764.5833333333334,112.81175808363923,29.166666666666572
30,1270.6875,682.7651515151515,739.5833333333333,111.14272732592181,54.166666666666686
30,1275.6875,678.219696969697,716.6666666666667,110.94374213200261,77.08333333333326
30,1280.6875,674.6212121212121,710.4166666666667,109.48190394544594,75.00000000000011
30,1285.6875,673.8636363636364,710.4166666666667,108.50598807424434,81.25
30,1290.6875,681.6287878787879,716.6666666666667,114.27263437034456,72.91666666666663
30,1295.6875,696.8023255813954,725.0,107.30139310706487,62.5
30,1300.6875,710.9126984126984,750.0,108.07878310682733,45.83333333333326
30,1305.6875,708.9147286821704,758.3333333333333,115.94369740687509,37.5
30,1310.6875,708.7209302325581,758.3333333333333,119.53259235936908,37.5
30,1315.6875,718.2539682539682,772.9166666666667,118.62808383279985,18.75
30,1320.6875,717.8571428571428,775.0,112.54435182005794,18.75
30,1325.6875,720.8333333333334,779.1666666666666,113.15012765741312,16.66666666666663
30,1330.6875,715.5753968253969,775.0,114.72343439284833,18.75
30,1335.6875,727.439024390244,775.0,100.23399537039954,16.666666666666742
30,1340.6875,720.7317073170732,775.0,103.65494224997438,16.66666666666663
30,1345.6875,723.2142857142857,760.4166666666666,114.57970377526738,31.25
30,1350.6875,724.5934959349593,762.5,113.47496082580217,29.16666666666663
30,1355.6875,705.329457364341,745.8333333333334,121.1965176236102,45.83333333333326
30,1360.6875,722.5198412698412,747.9166666666667,146.09604537690583,39.58333333333326
30,1365.6875,703.3730158730159,729.1666666666666,156.8804708264417,52.08333333333337
30,1370.6875,717.2619047619048,735.4166666666666,148.6318916584311,37.50000000000006
30,1375.6875,696.9961240310078,725.0,157.77712869461317,54.16666666666663
30,1380.6875,695.2519379844961,725.0,157.268719800335,50.0
30,1385.6875,689.0151515151515,722.9166666666667,159.93450621026312,52.08333333333326
30,1390.6875,663.7037037037036,716.6666666666666,132.78361531481144,50.000000000000114
30,1395.6875,671.2962962962963,720.8333333333334,126.92091652532054,45.83333333333337
30,1400.6875,657.9710144927536,710.4166666666667,129.4451182831666,58.333333333333314
30,1405.6875,670.1704545454546,725.0,112.28245971883631,41.66666666666674
30,1410.6875,669.3518518518518,725.0,115.68907095819151,41.66666666666674
30,1415.6875,690.4069767441861,737.5,106.60842471403178,29.166666666666742
30,1420.6875,681.6287878787879,731.25,108.60995609444687,35.41666666666674
30,1425.6875,684.6590909090909,735.4166666666666,111.89282290317905,31.250000000000114
30,1430.6875,693.4108527131784,745.8333333333334,111.27059198781618,20.83333333333337
30,1435.6875,691.9507575757576,743.75,108.6251203425735,20.83333333333337
30,1440.6875,694.8643410852712,741.6666666666667,105.71796146074365,25.0
30,1445.6875,708.1349206349206,737.5,116.55392484079206,20.833333333333314
30,1450.6875,700.0968992248063,733.3333333333333,116.42722158784089,25.0
30,1455.6875,705.232558139535,729.1666666666666,107.84035047170867,25.0
30,1460.6875,700.7751937984495,720.8333333333334,107.5415810053651,29.16666666666663
30,1465.6875,681.2500000000001,720.8333333333334,119.48255956977013,31.249999999999943
30,1470.6875,687.594696969697,722.9166666666667,117.40315926690043,35.416666666666515
30,1475.6875,680.1136363636364,722.9166666666667,118.39413097363246,35.416666666666515
30,1480.6875,693.4108527131783,729.1666666666666,119.74134573911506,29.16666666666663
30,1485.6875,690.5038759689922,737.5,127.2071202395747,29.166666666666742
30,1490.6875,689.5348837209302,729.1666666666666,141.82814120530065,41.66666666666674
30,1495.6875,703.9682539682539,743.75,137.9042234609496,31.25
30,1500.6875,713.7896825396825,747.9166666666667,136.31227628508523,31.25
30,1505.6875,714.5833333333334,752.0833333333333,141.15537216890093,29.166666666666742
30,1510.6875,719.4444444444445,747.9166666666667,137.57440296253094,27.083333333333258
30,1515.6875,718.6507936507936,745.8333333333334,137.9143120400469,27.083333333333314
30,1520.6875,727.0325203252033,745.8333333333334,114.66709798557568,20.83333333333337
30,1525.6875,727.5793650793652,747.9166666666667,108.82452894637338,16.6666666666668
30,1530.6875,699.1279069767442,741.6666666666667,126.55304447184065,25.000000000000114
30,1535.6875,702.5193798449612,741.6666666666667,104.30997893502978,25.000000000000114
30,1540.6875,698.1589147286822,741.6666666666667,104.51648532969547,33.33333333333326
30,1545.6875,693.1201550387597,737.5,102.06160167508311,37.5
30,1550.6875,681.5740740740741,737.5,107.58221870860963,37.5
30,1555.6875,692.8030303030304,737.5,121.94378694327251,37.5
30,1560.6875,699.702380952381,743.75,114.76156816664775,29.166666666666686
30,1565.6875,685.1325757575758,735.4166666666666,122.86088843236271,37.50000000000006
30,1570.6875,695.2519379844962,737.5,117.92329681339466,33.33333333333326
30,1575.6875,701.453488372093,741.6666666666667,119.98154799482565,25.0
30,1580.6875,708.5317460317461,743.75,116.72092372560884,25.000000000000057
30,1585.6875,700.3875968992247,737.5,117.86450678173826,33.33333333333326
30,1590.6875,704.0697674418603,741.6666666666667,116.5123993251597,29.16666666666663
30,1595.6875,699.7093023255813,733.3333333333333,111.23775774162863,33.333333333333485
30,1600.6875,707.936507936508,737.5,126.8788656472845,33.33333333333337
30,1605.6875,700.6782945736435,729.1666666666666,131.51642219136352,41.66666666666674
30,1610.6875,707.6388888888889,729.1666666666666,149.13060115699042,41.66666666666674
30,1615.6875,704.1666666666667,741.6666666666667,138.07314643672632,37.499999999999886
30,1620.6875,704.4573643410853,741.6666666666667,136.37828698177609,37.499999999999886
30,1625.6875,727.3373983739837,750.0,140.84334524473994,29.16666666666663
30,1630.6875,714.2857142857143,754.1666666666666,132.40640343918258,22.916666666666686
30,1635.6875,703.3730158730159,745.8333333333334,132.98110900296436,33.33333333333326
30,1640.6875,695.8333333333333,745.8333333333334,116.1482244931452,29.16666666666663
30,1645.6875,706.8798449612403,750.0,115.22595311791986,29.16666666666663
30,1650.6875,712.5,752.0833333333333,116.62673532665625,27.083333333333314
30,1655.6875,709.4246031746031,756.25,128.62645861907558,37.49999999999994
30,1660.6875,719.5436507936507,756.25,126.31586564099496,39.58333333333326
30,1665.6875,728.2520325203252,762.5,121.75122701840752,33.33333333333326
30,1670.6875,737.7032520325204,766.6666666666667,112.70795293956216,29.166666666666742
30,1675.6875,726.2195121951221,758.3333333333333,119.5958323260309,29.16666666666663
30,1680.6875,712.797619047619,752.0833333333333,129.4054076670994,31.249999999999886
30,1685.6875,688.6363636363639,733.3333333333333,113.44301733389405,41.666666666666686
30,1690.6875,672.8219696969697,725.0,113.72072640743515,54.16666666666663
30,1695.6875,674.5370370370371,729.1666666666666,116.54898766773937,50.0
30,1700.6875,665.0925925925926,720.8333333333334,119.80126407169588,50.000000000000114
30,1705.6875,653.9855072463769,700.0,117.33589973038711,70.83333333333337
30,1710.6875,664.7222222222222,725.0,114.5802341178663,50.0
30,1715.6875,682.4810606060606,735.4166666666666,113.6890917426905,43.75
30,1720.6875,681.5340909090909,735.4166666666666,117.2273271332368,39.58333333333337
30,1725.6875,683.1439393939394,735.4166666666666,112.3436127546018,43.75
30,1730.6875,687.5946969696971,743.75,111.50865482294563,37.5
30,1735.6875,702.1317829457365,770.8333333333334,111.41960680512139,20.833333333333258
30,1740.6875,698.6434108527133,775.0,114.11147768945085,12.5
30,1745.6875,695.1550387596899,770.8333333333334,116.8363640853465,16.66666666666663
30,1750.6875,695.639534883721,770.8333333333334,116.80460060515526,20.833333333333258
30,1755.6875,702.5193798449613,762.5,113.60836847682498,20.83333333333337
30,1760.6875,699.9031007751938,758.3333333333333,112.79535146852282,25.000000000000114
30,1765.6875,691.9573643410852,758.3333333333333,112.81333257485358,25.000000000000114
30,1770.6875,699.031007751938,754.1666666666666,105.72969088267232,16.666666666666742
30,1775.6875,690.0568181818181,750.0,109.87357630007662,22.916666666666686
30,1780.6875,691.9507575757576,750.0,107.74436548602613,18.750000000000057
30,1785.6875,687.984496124031,745.8333333333334,106.66530761754183,25.0
30,1790.6875,682.8488372093024,741.6666666666667,109.04910557113435,41.66666666666663
30,1795.6875,696.6085271317829,741.6666666666667,103.27497637696466,41.66666666666663
30,1800.6875,681.534090909091,731.25,109.34381791490819,56.25
30,1805.6875,689.8255813953489,737.5,106.45619707724225,58.33333333333326
30,1810.6875,680.3977272727273,720.8333333333333,109.11531851088863,74.99999999999994
30,1815.6875,675.1893939393939,718.75,115.03199527338057,77.08333333333326
30,1820.6875,677.3148148148148,725.0,115.75862656414836,66.66666666666663
30,1825.6875,660.9601449275362,704.1666666666666,117.97990614006284,66.66666666666674
30,1830.6875,675.7575757575758,733.3333333333334,122.13867481033863,62.499999999999886
30,1835.6875,670.9259259259259,733.3333333333333,124.36229025236135,45.83333333333337
30,1840.6875,686.8371212121211,747.9166666666667,121.8993447222594,35.416666666666686
30,1845.6875,675.3703703703704,737.5,128.82659969509837,50.0
30,1850.6875,670.7407407407408,733.3333333333333,131.19283534131498,54.16666666666674
30,1855.6875,681.0606060606061,737.5,129.31023074903368,50.0
30,1860.6875,671.8518518518518,725.0,127.12882803261914,58.33333333333337
30,1865.6875,678.2196969696969,731.25,122.96096507092074,56.25
30,1870.6875,670.0757575757576,725.0,125.16227427828846,62.5
30,1875.6875,694.5736434108527,754.1666666666666,117.68804216073283,37.5
30,1880.6875,707.3412698412698,768.75,111.42709376739772,27.083333333333258
30,1885.6875,694.3798449612403,766.6666666666667,120.86713991001982,33.33333333333326
30,1890.6875,703.7790697674418,766.6666666666667,115.76256100454498,33.33333333333326
30,1895.6875,700.1937984496124,741.6666666666667,122.50807623864584,58.33333333333326
30,1900.6875,718.2539682539682,737.5,132.3514160921313,62.5
30,1905.6875,703.9728682170543,725.0,133.62429032895213,70.83333333333326
30,1910.6875,691.7635658914729,704.1666666666667,135.7649318113223,66.66666666666663
30,1915.6875,695.3488372093024,691.6666666666666,139.68090436746186,62.5
30,1920.6875,694.8643410852713,704.1666666666667,143.65388784094014,70.83333333333348
30,1925.6875,699.515503875969,704.1666666666667,133.3525820131283,54.166666666666515
30,1930.6875,692.0454545454546,722.9166666666667,121.60711276689032,68.74999999999989
30,1935.6875,692.7325581395348,712.5,126.63315732372898,70.83333333333337
30,1940.6875,693.3712121212121,710.4166666666667,121.86746127819858,66.66666666666657
30,1945.6875,690.9883720930233,708.3333333333334,108.98738092181532,58.33333333333337
30,1950.6875,678.5037878787879,702.0833333333334,114.57828805600751,72.91666666666669
30,1955.6875,683.9962121212121,720.8333333333333,126.84982417132095,68.74999999999994
30,1960.6875,666.6666666666667,695.8333333333333,126.0037221057224,66.66666666666674
30,1965.6875,662.4074074074074,691.6666666666666,132.5125330243511,70.83333333333337
30,1970.6875,666.7592592592592,700.0,141.687523222098,100.0
30,1975.6875,671.6666666666666,725.0,143.35722580992976,75.0
30,1980.6875,676.9886363636363,727.0833333333333,137.74346731428437,54.16666666666663
30,1985.6875,686.9186046511628,733.3333333333333,144.55099872684133,62.5
30,1990.6875,702.7131782945736,741.6666666666667,141.09034182979127,45.833333333333485
30,1995.6875,720.734126984127,754.1666666666666,123.526162483026,29.166666666666686
30,2000.6875,731.808943089431,754.1666666666666,108.91971151683505,25.0
30,2005.6875,742.8125,762.5,99.39268710523929,16.66666666666663
30,2010.6875,752.0833333333334,762.5,108.13179807524592,20.833333333333258
30,2015.6875,723.7103174603175,752.0833333333333,106.80792894252566,22.916666666666686
30,2020.6875,726.1178861788618,750.0,99.36440540241566,20.83333333333337
30,2025.6875,722.8658536585366,745.8333333333334,103.40606458891537,25.0
30,2030.6875,715.6746031746032,741.6666666666667,110.18511740737571,31.25
30,2035.6875,707.1705426356589,729.1666666666666,118.0310160585553,45.83333333333337
30,2040.6875,707.0736434108527,754.1666666666666,102.14925343154076,29.166666666666742
30,2045.6875,727.1341463414634,754.1666666666666,106.1687677677503,29.16666666666663
30,2050.6875,724.0079365079365,758.3333333333333,116.3570569631393,33.33333333333326
30,2055.6875,730.1587301587301,766.6666666666667,120.3322576826288,31.25
30,2060.6875,747.3958333333334,770.8333333333334,124.62796309204823,33.33333333333337
30,2065.6875,735.7723577235772,762.5,131.45808772347664,33.33333333333326
30,2070.6875,726.5625,737.5,156.1554200928004,50.0
30,2075.6875,730.8943089430894,737.5,162.30483902939469,50.0
30,2080.6875,731.6666666666666,731.25,169.26342439406935,43.75
30,2085.6875,720.3252032520326,716.6666666666666,178.35376421602965,37.499999999999886
30,2090.6875,701.0658914728682,700.0,170.67862967874566,37.5
30,2095.6875,709.1269841269841,702.0833333333334,174.68088911221793,45.833333333333314
30,2100.6875,695.6439393939394,700.0,166.04281144853178,47.916666666666686
30,2105.6875,689.437984496124,704.1666666666667,158.36817922010667,45.83333333333326
30,2110.6875,688.5185185185186,704.1666666666667,141.38272445929564,33.333333333333485
30,2115.6875,693.5077519379846,708.3333333333334,131.43584828200014,45.83333333333326
30,2120.6875,689.922480620155,716.6666666666666,133.8631356489288,45.83333333333337
30,2125.6875,701.5503875968993,729.1666666666666,119.67501482400836,33.33333333333337
30,2130.6875,704.1666666666667,741.6666666666667,117.2004512243693,25.000000000000114
30,2135.6875,689.7727272727273,737.5,110.2193261595065,29.16666666666663
30,2140.6875,696.2209302325581,750.0,113.69447433052301,12.5
30,2145.6875,683.1439393939394,745.8333333333334,108.1503916932193,12.499999999999886
30,2150.6875,689.4886363636365,745.8333333333334,102.04422457774609,8.333333333333371
30,2155.6875,683.7121212121211,745.8333333333334,106.09577339042839,14.583333333333371
30,2160.6875,700.0,747.9166666666667,97.70832791616814,18.750000000000057
30,2165.6875,706.1046511627908,750.0,97.68039222623266,20.83333333333337
30,2170.6875,682.9457364341085,741.6666666666667,105.70222926254553,33.33333333333326
30,2175.6875,695.9280303030303,747.9166666666667,123.67674480825401,35.41666666666657
30,2180.6875,684.9806201550388,725.0,131.33780615068144,50.0
30,2185.6875,680.2083333333334,714.5833333333334,137.74240143741784,70.83333333333331
30,2190.6875,670.0925925925927,704.1666666666667,138.5898295437807,66.66666666666663
30,2195.6875,677.1296296296296,708.3333333333334,134.65731801150514,70.83333333333326
30,2200.6875,685.7954545454545,729.1666666666666,142.07737484896964,54.16666666666674
30,2205.6875,680.5232558139535,725.0,127.05558807924648,45.83333333333326
30,2210.6875,697.7713178294575,737.5,133.92832533507598,45.83333333333337
30,2215.6875,697.8682170542635,737.5,129.14225349493753,45.83333333333337
30,2220.6875,712.5992063492065,739.5833333333334,117.48943364543446,33.333333333333314
30,2225.6875,714.484126984127,739.5833333333334,140.35511393420916,41.66666666666663
30,2230.6875,710.1744186046511,733.3333333333333,131.12097565201765,33.333333333333485
30,2235.6875,717.1626984126984,731.25,125.59547318115365,33.33333333333337
30,2240.6875,710.9126984126984,735.4166666666666,110.22408954542654,27.083333333333314
30,2245.6875,698.546511627907,729.1666666666666,114.75864554341653,33.33333333333337
30,2250.6875,705.6201550387597,737.5,134.2875198847636,41.66666666666674
30,2255.6875,699.2248062015505,737.5,111.40062411199011,25.0
30,2260.6875,709.3253968253969,739.5833333333334,109.03388842173995,22.916666666666742
30,2265.6875,709.205426356589,745.8333333333334,115.90795721853246,29.166666666666742
30,2270.6875,711.1434108527133,745.8333333333334,120.85632283435348,29.166666666666742
30,2275.6875,748.3333333333334,756.25,122.20813827167592,16.666666666666686
30,2280.6875,730.3861788617887,754.1666666666666,115.34310194073876,29.166666666666742
30,2285.6875,729.8780487804878,766.6666666666667,123.76438762821255,24.999999999999886
30,2290.6875,726.4227642276422,766.6666666666667,128.66370407621753,24.999999999999886
30,2295.6875,717.3780487804878,762.5,130.0237105748529,29.16666666666663
30,2300.6875,728.4552845528456,766.6666666666667,123.79594559187491,24.999999999999886
30,2305.6875,708.9285714285713,760.4166666666666,111.90020563042604,27.08333333333337
30,2310.6875,706.25,760.4166666666666,115.23603825277543,22.916666666666742
30,2315.6875,707.936507936508,760.4166666666666,109.69211008120106,22.916666666666686
30,2320.6875,703.875968992248,766.6666666666667,115.94659925871217,20.833333333333258
30,2325.6875,713.953488372093,766.6666666666667,116.6449941637765,20.833333333333258
30,2330.6875,703.3914728682171,762.5,120.81368139986246,20.83333333333337
30,2335.6875,688.1628787878788,758.3333333333333,130.31944695267913,29.166666666666742
30,2340.6875,686.7424242424242,758.3333333333333,130.20578750153905,29.166666666666742
30,2345.6875,681.9128787878789,752.0833333333333,129.73257869549337,35.41666666666674
30,2350.6875,683.8068181818181,747.9166666666667,129.52474718489069,35.41666666666674
30,2355.6875,674.0530303030301,739.5833333333334,131.36219714266707,31.25
30,2360.6875,674.5265151515152,741.6666666666667,132.2363299362746,33.333333333333314
30,2365.6875,680.0189393939395,747.9166666666667,132.9317460810683,35.41666666666663
30,2370.6875,689.9621212121211,756.25,129.9110153791542,27.08333333333337
30,2375.6875,692.0454545454545,758.3333333333333,131.92943734741942,29.166666666666742
30,2380.6875,690.4069767441861,758.3333333333333,133.02772169185602,29.16666666666663
30,2385.6875,688.6627906976744,758.3333333333333,133.34674281960548,25.000000000000114
30,2390.6875,688.3720930232558,758.3333333333333,131.9639442760832,29.16666666666663
30,2395.6875,694.8643410852713,762.5,127.30947615684634,25.0
30,2400.6875,685.0775193798451,754.1666666666666,128.48074582880685,33.33333333333337
30,2405.6875,678.1249999999999,731.25,128.51053971495668,47.91666666666663
30,2410.6875,681.7234848484849,754.1666666666666,130.40701015928752,33.33333333333337
30,2415.6875,687.1212121212121,754.1666666666666,123.3476650149749,33.33333333333337
30,2420.6875,695.5492424242425,754.1666666666666,137.72561278867988,33.33333333333337
30,2425.6875,687.0265151515151,741.6666666666666,138.75023543608222,43.75000000000006
30,2430.6875,693.8446969696971,745.8333333333334,135.57791126471693,37.5
30,2435.6875,699.6124031007752,754.1666666666666,132.61779091373424,33.33333333333337
30,2440.6875,694.1860465116279,741.6666666666667,131.25910000855555,33.33333333333326
30,2445.6875,702.2286821705427,741.6666666666667,136.05648250957418,37.499999999999886
30,2450.6875,697.9651162790699,720.8333333333334,140.6045975588349,50.0
30,2455.6875,691.8604651162791,712.5,144.3317062952786,54.16666666666674
30,2460.6875,700.0,704.1666666666667,147.92435146592248,62.5
30,2465.6875,691.375968992248,691.6666666666666,150.14982417494272,70.83333333333337
30,2470.6875,706.201550387597,691.6666666666666,155.9934987034739,70.83333333333337
30,2475.6875,694.282945736434,679.1666666666667,147.83496865151832,70.83333333333326
30,2480.6875,678.4090909090909,666.6666666666666,122.26092239717302,49.99999999999994
30,2485.6875,702.7777777777777,668.75,114.35598904847811,45.833333333333314
30,2490.6875,691.4728682170543,666.6666666666666,113.72769814651329,58.33333333333337
30,2495.6875,706.5891472868218,700.0,107.0599480291621,62.5
30,2500.6875,700.5813953488372,700.0,89.33072262897045,62.5
30,2505.6875,692.3449612403101,708.3333333333334,106.81525733806419,70.83333333333337
30,2510.6875,721.6463414634147,745.8333333333334,132.90366809544773,41.66666666666663
30,2515.6875,717.2619047619048,747.9166666666667,132.14848111416956,37.5
30,2520.6875,723.5772357723578,750.0,126.34213413475165,37.5
30,2525.6875,720.9349593495934,750.0,125.38997433589593,33.33333333333337
30,2530.6875,719.8170731707316,750.0,124.94366955684717,33.33333333333337
30,2535.6875,731.30081300813,750.0,110.98173785903417,33.33333333333337
30,2540.6875,700.6782945736434,737.5,95.12301555925234,33.33333333333326
30,2545.6875,711.531007751938,750.0,89.60449735835726,37.5
30,2550.6875,697.1899224806202,733.3333333333333,101.01060490578699,33.333333333333485
30,2555.6875,694.7674418604652,733.3333333333333,110.42730939745125,41.66666666666674
30,2560.6875,680.871212121212,729.1666666666666,119.89349205116469,52.08333333333337
30,2565.6875,686.5530303030303,733.3333333333333,116.90819281025288,39.58333333333343
30,2570.6875,681.7234848484848,733.3333333333333,122.0690486559545,41.66666666666674
30,2575.6875,668.6553030303029,718.75,119.43520400501684,47.91666666666674
30,2580.6875,698.062015503876,720.8333333333334,139.4710482902632,45.83333333333337
30,2585.6875,712.5968992248062,733.3333333333333,146.7051276796785,37.5
30,2590.6875,724.702380952381,733.3333333333333,139.28349623992105,33.33333333333337
30,2595.6875,707.9457364341084,720.8333333333334,147.9014746096423,41.66666666666663
30,2600.6875,720.3373015873016,741.6666666666667,145.9166497801258,33.33333333333326
30,2605.6875,725.4960317460318,735.4166666666666,159.9966187316129,39.58333333333337
30,2610.6875,716.0714285714288,743.75,139.31443711509343,31.25
30,2615.6875,710.4651162790699,745.8333333333334,126.88842095794416,41.66666666666663
30,2620.6875,709.2261904761905,733.3333333333333,122.3275835550294,41.66666666666674
30,2625.6875,714.0873015873017,743.75,122.0448529110518,37.49999999999994
30,2630.6875,710.7142857142857,729.1666666666666,117.10191335210526,47.916666666666686
30,2635.6875,699.4186046511628,729.1666666666666,99.53422194776721,45.83333333333326
30,2640.6875,701.7441860465116,729.1666666666666,100.64783770112328,50.0
30,2645.6875,702.422480620155,733.3333333333333,97.32378152765575,37.500000000000114
30,2650.6875,697.6744186046511,729.1666666666666,102.24538613598038,41.66666666666674
30,2655.6875,711.5079365079366,741.6666666666667,113.57253542421344,31.25
30,2660.6875,727.2357723577236,750.0,104.06702551460764,25.0
30,2665.6875,731.5040650406504,750.0,102.52476318624524,20.83333333333337
30,2670.6875,714.186507936508,743.75,112.14774543161465,22.916666666666686
30,2675.6875,706.0515873015875,741.6666666666667,118.75384168993529,25.000000000000057
30,2680.6875,720.436507936508,747.9166666666667,132.53639349036243,16.66666666666663
30,2685.6875,726.321138211382,750.0,128.29828736972843,25.0
30,2690.6875,724.702380952381,750.0,146.94089540410553,31.25
30,2695.6875,717.6829268292682,750.0,149.790885741488,33.33333333333337
30,2700.6875,734.1463414634146,754.1666666666666,140.76372636404452,25.0
30,2705.6875,731.4024390243902,750.0,140.62761590460656,25.0
30,2710.6875,722.1544715447154,741.6666666666667,144.61826854709946,33.33333333333326
30,2715.6875,703.7790697674419,741.6666666666667,141.52891865638375,33.33333333333337
30,2720.6875,682.9545454545455,729.1666666666666,131.04510024900506,47.916666666666686
30,2725.6875,680.8712121212121,725.0,135.36580196126147,50.0
30,2730.6875,675.7575757575758,718.75,140.4481129168112,64.58333333333337
30,2735.6875,676.0416666666666,718.75,138.70049399653817,64.58333333333337
30,2740.6875,685.8901515151515,743.75,119.23127994702551,37.49999999999994
30,2745.6875,670.9280303030304,729.1666666666667,127.88495313121767,49.999999999999886
30,2750.6875,684.8484848484849,733.3333333333333,140.07337878654656,39.58333333333343
30,2755.6875,705.2325581395348,750.0,148.06984864836545,37.5
30,2760.6875,697.8682170542636,720.8333333333334,144.52180113335868,54.16666666666663
30,2765.6875,711.6071428571429,725.0,155.8250609578958,43.75
30,2770.6875,697.6744186046511,716.6666666666666,163.5883939553457,58.33333333333337
30,2775.6875,712.9960317460318,722.9166666666667,155.1242027426791,49.99999999999994
30,2780.6875,722.560975609756,741.6666666666667,134.91887869350708,29.166666666666742
30,2785.6875,715.6746031746032,743.75,123.15993057468481,31.25
30,2790.6875,732.9268292682926,754.1666666666666,148.9919975888922,25.0
30,2795.6875,712.1124031007752,745.8333333333334,143.59625995911713,33.33333333333326
30,2800.6875,711.4087301587302,743.75,141.98928927496215,31.25
30,2805.6875,715.2777777777778,743.75,135.73069176328616,33.333333333333314
30,2810.6875,698.546511627907,725.0,146.05958560486653,54.16666666666663
30,2815.6875,709.0277777777778,735.4166666666666,153.7910626271656,39.58333333333337
30,2820.6875,690.0568181818182,739.5833333333334,130.5586285243034,35.41666666666663
30,2825.6875,695.0581395348837,741.6666666666667,129.24426692903015,33.33333333333326
30,2830.6875,706.8798449612403,741.6666666666667,135.7600460857424,33.33333333333326
30,2835.6875,705.717054263566,750.0,141.1493333508938,37.5
30,2840.6875,704.360465116279,741.6666666666667,139.73044690157155,37.499999999999886
30,2845.6875,685.3219696969697,743.75,133.89684890591883,35.41666666666663
30,2850.6875,683.7121212121212,733.3333333333333,135.57591465739443,41.666666666666686
30,2855.6875,680.4924242424241,725.0,134.05139954156007,45.83333333333337
30,2860.6875,670.1704545454545,708.3333333333334,115.70388723030017,54.166666666666686
30,2865.6875,669.9999999999999,708.3333333333334,112.56171146925978,45.83333333333326
30,2870.6875,665.4629629629629,708.3333333333334,110.72043058350651,58.33333333333337
30,2875.6875,669.0740740740741,708.3333333333334,108.3642470785147,62.5
30,2880.6875,677.5568181818182,708.3333333333334,99.8068868128531,62.5
30,2885.6875,673.148148148148,708.3333333333334,105.53104779286701,62.5
30,2890.6875,675.5681818181818,727.0833333333333,112.06523408335607,47.91666666666674
30,2895.6875,691.4728682170543,725.0,120.4803049297643,45.83333333333337
30,2900.6875,708.234126984127,743.75,118.05391871061283,31.25
30,2905.6875,709.9206349206349,745.8333333333334,117.52353877177413,25.0
30,2910.6875,694.9612403100775,733.3333333333333,126.6118241613816,37.5
30,2915.6875,696.8023255813954,737.5,126.0171487018718,33.33333333333337
30,2920.6875,707.8488372093022,745.8333333333334,124.21449389925262,33.33333333333326
30,2925.6875,703.2738095238095,739.5833333333333,121.49397378426788,39.58333333333326
30,2930.6875,706.298449612403,729.1666666666666,131.6183483681842,33.33333333333337
30,2935.6875,712.6984126984128,729.1666666666666,125.50019293054211,33.33333333333337
30,2940.6875,745.1041666666667,741.6666666666667,132.72728014193103,31.250000000000057
30,2945.6875,745.1041666666667,741.6666666666667,135.08428142314278,39.58333333333326
30,2950.6875,728.2520325203253,720.8333333333334,141.11569387656917,29.166666666666742
30,2955.6875,707.0736434108527,716.6666666666666,141.06587968209598,41.66666666666663
30,2960.6875,711.2103174603175,737.5,125.25545744577747,29.166666666666742
30,2965.6875,719.3452380952381,733.3333333333333,139.23310761418782,39.58333333333337
30,2970.6875,692.829457364341,729.1666666666666,129.1869082366764,41.66666666666674
30,2975.6875,709.6230158730159,741.6666666666667,117.39208305787241,31.25
30,2980.6875,716.6666666666667,750.0,139.5950880865304,25.0
30,2985.6875,720.0396825396825,750.0,141.11633330376756,25.0
30,2990.6875,705.4563492063493,729.1666666666666,146.46202491397622,39.58333333333337
30,2995.6875,688.1782945736435,729.1666666666666,136.87306035130626,41.66666666666663
30,3000.6875,672.4074074074075,716.6666666666666,140.90506311900273,45.83333333333337
30,3005.6875,664.7222222222223,704.1666666666667,151.96420199135284,41.66666666666663
30,3010.6875,659.9637681159421,700.0,132.00284748632558,43.75000000000006
30,3015.6875,669.7916666666667,704.1666666666667,128.532530017151,45.833333333333314
30,3020.6875,677.2222222222221,716.6666666666666,129.83879379344748,45.83333333333337
30,3025.6875,680.0,720.8333333333334,131.04571644269723,50.0
30,3030.6875,699.6124031007752,741.6666666666667,117.8750275403259,33.33333333333326
30,3035.6875,692.0454545454546,735.4166666666667,112.83083060692009,39.58333333333337
30,3040.6875,695.1550387596899,750.0,109.92019348439398,29.16666666666663
30,3045.6875,691.2878787878789,745.8333333333334,110.2426344673899,31.249999999999943
30,3050.6875,691.0852713178296,741.6666666666667,118.9215948862181,37.5
30,3055.6875,692.5387596899225,741.6666666666667,118.52808608965132,33.33333333333326
30,3060.6875,693.0232558139536,729.1666666666666,119.09921823804926,37.500000000000114
30,3065.6875,695.3488372093022,737.5,111.52283329659143,25.0
30,3070.6875,701.2596899224807,741.6666666666667,106.95295349982358,16.666666666666742
30,3075.6875,699.7093023255813,737.5,106.40218384141014,20.833333333333258
30,3080.6875,697.6744186046511,737.5,98.67802750906534,20.833333333333258
30,3085.6875,687.7840909090909,735.4166666666666,99.53622157334227,22.91666666666663
30,3090.6875,692.0454545454545,739.5833333333334,99.98715268659551,18.749999999999886
30,3095.6875,685.6060606060606,741.6666666666667,100.38063276988775,16.66666666666663
30,3100.6875,680.7765151515151,739.5833333333334,107.77365830897412,25.000000000000057
30,3105.6875,684.9431818181819,743.75,109.92133635008915,27.08333333333337
30,3110.6875,688.5658914728682,741.6666666666667,122.0013777110977,29.16666666666663
30,3115.6875,683.7209302325581,741.6666666666667,127.10468189630396,29.16666666666663
30,3120.6875,675.0,725.0,127.90550856568697,45.83333333333337
30,3125.6875,688.8565891472869,729.1666666666666,123.27755378168385,37.500000000000114
30,3130.6875,682.5757575757576,720.8333333333333,126.64063101736869,43.750000000000114
30,3135.6875,680.2083333333334,720.8333333333333,125.90475217976096,37.5
30,3140.6875,663.9492753623188,712.5,118.78116027594724,45.83333333333326
30,3145.6875,677.3148148148148,720.8333333333334,114.98914212148964,33.33333333333326
30,3150.6875,691.9507575757576,743.75,107.26740704612847,22.916666666666742
30,3155.6875,688.0681818181819,745.8333333333334,111.83441824230177,20.83333333333337
30,3160.6875,678.314393939394,745.8333333333334,116.20054846004317,22.916666666666686
30,3165.6875,684.5643939393939,735.4166666666666,112.48233979047745,22.91666666666663
30,3170.6875,705.9523809523811,745.8333333333334,96.52298184371998,16.66666666666663
30,3175.6875,698.4496124031008,745.8333333333334,99.17826752795285,16.66666666666663
30,3180.6875,695.0581395348838,741.6666666666667,100.79567631952386,20.833333333333258
30,3185.6875,684.0909090909091,739.5833333333334,108.3865132116665,18.749999999999943
30,3190.6875,685.0378787878789,739.5833333333334,105.61328135465064,22.91666666666663
30,3195.6875,677.3674242424241,739.5833333333334,111.62774735136823,22.91666666666663
30,3200.6875,662.8623188405797,733.3333333333333,112.08196022481417,29.166666666666742
30,3205.6875,668.7037037037037,737.5,113.11777009034984,33.33333333333326
30,3210.6875,663.425925925926,737.5,116.63584850295594,33.33333333333337
30,3215.6875,672.1590909090908,737.5,111.18333995429377,31.25
30,3220.6875,679.9242424242425,737.5,109.9362362438537,22.91666666666663
30,3225.6875,682.2916666666667,741.6666666666667,107.37547998286382,20.833333333333258
30,3230.6875,675.3787878787879,739.5833333333334,112.72342937138644,27.083333333333314
30,3235.6875,660.0925925925927,725.0,118.38723460585037,37.5
30,3240.6875,655.3442028985507,706.25,121.88610045515989,54.16666666666663
30,3245.6875,663.7037037037037,737.5,123.89225773378601,29.166666666666742
30,3250.6875,665.5555555555557,741.6666666666667,124.62190291786068,25.0
30,3255.6875,677.7462121212122,739.5833333333334,140.1277079421551,27.08333333333337
30,3260.6875,693.9922480620156,750.0,137.92713336530585,16.666666666666742
30,3265.6875,705.329457364341,750.0,129.4522112001922,16.666666666666742
30,3270.6875,724.5934959349593,754.1666666666666,130.83202254534717,12.500000000000114
30,3275.6875,710.813492063492,741.6666666666667,129.96918126658713,37.49999999999994
30,3280.6875,707.4404761904761,729.1666666666666,130.09447693413045,39.58333333333337
30,3285.6875,712.6984126984127,729.1666666666666,132.3514160921313,43.75000000000006
30,3290.6875,696.5116279069769,700.0,141.8647373294413,62.5
30,3295.6875,693.7015503875969,700.0,144.7304443851763,58.33333333333326
30,3300.6875,703.1007751937984,708.3333333333334,156.62743573117515,50.0
30,3305.6875,712.2093023255815,733.3333333333333,157.80874707108975,33.333333333333485
30,3310.6875,731.7073170731708,741.6666666666667,177.41116235585432,45.833333333333485
30,3315.6875,705.6201550387597,720.8333333333334,166.49019357802234,41.66666666666663
30,3320.6875,731.5040650406504,737.5,153.99779258791742,37.5
30,3325.6875,739.6875,739.5833333333334,146.06662506045902,35.41666666666663
30,3330.6875,709.8214285714284,731.25,133.89370755405443,35.41666666666674
30,3335.6875,709.4246031746032,725.0,152.5973730730935,45.83333333333337
30,3340.6875,695.8333333333334,725.0,123.58324101720856,41.66666666666663
30,3345.6875,716.5650406504064,741.6666666666667,150.0187714090065,33.33333333333337
30,3350.6875,706.6860465116279,733.3333333333333,152.79348638997712,41.66666666666674
30,3355.6875,700.2906976744187,725.0,156.14188150551942,54.16666666666663
30,3360.6875,711.8055555555557,741.6666666666667,153.209002777476,41.666666666666686
30,3365.6875,705.5555555555555,737.5,156.63040865101024,43.75
30,3370.6875,707.0736434108526,733.3333333333333,154.12519520418118,45.83333333333337
30,3375.6875,693.9393939393939,733.3333333333333,130.8404757390228,35.4166666666668
30,3380.6875,700.484496124031,737.5,124.34088562722566,29.16666666666663
30,3385.6875,705.1356589147285,741.6666666666667,122.78741930009868,25.0
30,3390.6875,684.8484848484849,727.0833333333333,128.1297177523401,31.25
30,3395.6875,695.1704545454545,735.4166666666666,125.53484794005927,22.91666666666663
30,3400.6875,708.0357142857143,733.3333333333333,134.84092070522146,25.0
30,3405.6875,702.5793650793651,729.1666666666666,134.51254582331305,29.16666666666663
30,3410.6875,713.1944444444443,718.75,157.1816174452088,33.333333333333314
30,3415.6875,735.1041666666666,718.75,172.3984679414974,31.25
30,3420.6875,773.9316239316239,720.8333333333334,168.42471341987883,29.16666666666663
30,3425.6875,778.7280701754386,714.5833333333333,167.2057427003358,20.833333333333314
30,3430.6875,773.0769230769231,704.1666666666667,174.28279871268276,20.833333333333258
30,3435.6875,772.2222222222223,695.8333333333333,169.57261953023837,29.16666666666663
30,3440.6875,751.4583333333333,691.6666666666666,160.99746396933833,33.33333333333326
30,3445.6875,719.3452380952381,681.25,161.80883193850187,25.000000000000057
30,3450.6875,697.577519379845,670.8333333333333,141.1616598727807,16.666666666666742
30,3455.6875,697.4806201550388,670.8333333333333,137.81271418921708,16.66666666666663
30,3460.6875,712.3015873015872,670.8333333333333,142.89565070109353,16.666666666666686
30,3465.6875,746.1382113821138,679.1666666666667,166.3522822474735,29.166666666666742
30,3470.6875,770.3947368421053,683.3333333333334,173.69685728247575,37.5
30,3475.6875,801.6447368421053,683.3333333333334,157.25850054153358,27.08333333333337
30,3480.6875,833.912037037037,941.6666666666665,162.22398040741072,68.75000000000006
30,3485.6875,821.2837837837839,679.1666666666667,159.98102156379028,37.5
30,3490.6875,805.5180180180181,679.1666666666667,161.53874656453678,29.166666666666742
30,3495.6875,763.6752136752139,670.8333333333333,149.01893080374634,8.333333333333485
30,3500.6875,742.581300813008,666.6666666666666,140.01026808551117,8.333333333333258
30,3505.6875,726.3211382113822,666.6666666666666,130.40880908301355,8.333333333333371
30,3510.6875,711.4087301587302,670.8333333333333,114.73819735713789,8.333333333333258
30,3515.6875,725.4065040650407,670.8333333333333,127.87935421489017,8.333333333333258
30,3520.6875,736.0772357723577,670.8333333333333,136.02941418821976,8.333333333333258
30,3525.6875,766.6666666666666,675.0,153.7274445015673,12.5
30,3530.6875,785.9649122807018,675.0,158.92321676101253,18.75
30,3535.6875,806.3063063063063,675.0,162.32962822561547,20.83333333333337
30,3540.6875,801.8018018018018,670.8333333333333,164.9025284389303,24.999999999999886
30,3545.6875,796.0585585585585,670.8333333333333,165.67105970876455,24.999999999999886
30,3550.6875,799.1228070175438,670.8333333333333,164.46221708089357,24.999999999999886
30,3555.6875,790.0219298245614,670.8333333333333,161.65476491461226,22.916666666666572
30,3560.6875,774.6710526315788,670.8333333333333,158.72811611402773,14.583333333333258
30,3565.6875,753.9583333333333,666.6666666666666,150.48576969382148,8.333333333333314
30,3570.6875,766.0256410256411,670.8333333333333,154.2778714072045,8.333333333333258
30,3575.6875,769.8958333333333,666.6666666666666,155.1337979981765,8.333333333333258
30,3580.6875,765.7291666666666,668.75,155.09648999015081,6.25
30,3585.6875,756.0416666666667,666.6666666666666,150.74290744608564,8.333333333333258
30,3590.6875,748.6788617886178,675.0,143.47630655270373,12.5
30,3595.6875,745.625,675.0,151.51170232087995,12.5
30,3600.6875,724.7023809523811,675.0,153.09972720797893,12.5
30,3605.6875,716.6666666666666,679.1666666666667,153.82157597610407,12.5
30,3610.6875,684.3992248062015,675.0,148.476870713761,12.5
30,3615.6875,692.34496124031,679.1666666666667,155.78550066058747,12.499999999999886
30,3620.6875,715.7738095238096,679.1666666666667,178.31627386464467,20.833333333333428
30,3625.6875,730.9959349593496,675.0,180.12835118250817,16.66666666666663
30,3630.6875,756.0897435897436,679.1666666666667,180.23662097687193,12.500000000000114
30,3635.6875,758.3333333333331,675.0,175.51355306625618,8.333333333333371
30,3640.6875,782.2649572649574,679.1666666666667,160.09157064365723,12.500000000000114
30,3645.6875,759.6153846153846,679.1666666666667,161.94279707096237,8.333333333333485
30,3650.6875,735.060975609756,675.0,150.2774506080224,8.333333333333371
30,3655.6875,704.3604651162791,679.1666666666667,147.06383782047683,12.499999999999886
30,3660.6875,677.9629629629629,675.0,135.28875725464468,16.66666666666663
30,3665.6875,656.7934782608696,675.0,131.5604315199176,16.66666666666663
30,3670.6875,650.3623188405796,672.9166666666666,135.45996768371776,18.75
30,3675.6875,657.7898550724638,672.9166666666666,145.42299067128621,20.833333333333314
30,3680.6875,654.074074074074,675.0,150.60769392410137,20.833333333333258
30,3685.6875,675.3787878787878,677.0833333333334,154.93814454545756,14.583333333333371
30,3690.6875,685.8901515151515,675.0,147.56917067365336,12.5
30,3695.6875,702.5193798449612,683.3333333333334,153.2284286124999,8.333333333333371
30,3700.6875,681.5340909090909,683.3333333333334,140.08579218657167,8.333333333333371
30,3705.6875,675.2777777777778,683.3333333333334,129.2625499446062,8.333333333333371
30,3710.6875,667.3148148148149,683.3333333333334,118.76148122180756,8.333333333333371
30,3715.6875,654.0760869565217,683.3333333333334,109.10865411649644,8.333333333333371
30,3720.6875,648.9130434782609,683.3333333333334,113.18697924466133,12.499999999999886
30,3725.6875,654.6296296296296,683.3333333333334,108.80659382458488,12.499999999999886
30,3730.6875,665.9259259259259,683.3333333333334,101.14281054875558,8.333333333333371
30,3735.6875,660.3703703703704,679.1666666666667,123.9018117325864,12.500000000000114
30,3740.6875,659.6014492753624,681.25,124.48929488539488,14.583333333333258
30,3745.6875,666.5740740740741,683.3333333333334,121.90126591119538,12.499999999999886
30,3750.6875,686.3636363636365,681.25,137.96568906837945,10.416666666666686
30,3755.6875,671.9444444444445,679.1666666666667,146.8562608935566,20.833333333333258
30,3760.6875,674.1477272727274,679.1666666666667,160.26861824672534,22.91666666666663
30,3765.6875,693.701550387597,683.3333333333334,148.00640608070077,8.333333333333371
30,3770.6875,695.3488372093024,679.1666666666667,145.58428082279278,8.333333333333258
30,3775.6875,686.3636363636364,679.1666666666667,149.0180055746142,4.1666666666667425
30,3780.6875,664.7222222222223,679.1666666666667,134.2522783509622,4.1666666666667425
30,3785.6875,665.0000000000001,679.1666666666667,100.98317191542861,4.166666666666629
30,3790.6875,667.5925925925926,679.1666666666667,80.16165450497007,4.166666666666629
30,3795.6875,679.8295454545455,683.3333333333334,105.82953047331364,4.166666666666629
30,3800.6875,682.6704545454546,683.3333333333334,105.08295903661994,4.166666666666629
30,3805.6875,692.0542635658915,687.5,99.14404651264958,8.333333333333258
30,3810.6875,701.7857142857142,691.6666666666666,91.06018354205709,6.249999999999943
30,3815.6875,686.7248062015503,691.6666666666666,105.93442792970981,4.166666666666629
30,3820.6875,689.7727272727273,691.6666666666666,123.72232857385865,8.333333333333314
30,3825.6875,678.7037037037037,691.6666666666666,109.84601762003446,8.333333333333371
30,3830.6875,691.6666666666667,691.6666666666666,125.42256617459279,12.500000000000114
30,3835.6875,712.4007936507936,704.1666666666667,151.59631647928143,16.66666666666663
30,3840.6875,707.4612403100775,708.3333333333334,154.68477434543456,12.5
30,3845.6875,719.7420634920636,712.5,149.1735916200671,8.333333333333371
30,3850.6875,720.7317073170732,712.5,134.96877148091608,8.333333333333258
30,3855.6875,710.7142857142857,712.5,124.41306259088827,8.333333333333371
30,3860.6875,709.6230158730158,712.5,126.0339624912736,12.5
30,3865.6875,707.2674418604652,712.5,127.67667570039283,16.66666666666663
30,3870.6875,712.797619047619,716.6666666666666,144.25948906014705,12.5
30,3875.6875,711.6279069767442,712.5,142.5322475217808,16.66666666666663
30,3880.6875,735.9756097560976,716.6666666666666,172.45358699668057,20.83333333333337
30,3885.6875,769.8717948717949,716.6666666666666,190.65441494474163,16.66666666666663
30,3890.6875,775.2136752136751,716.6666666666666,183.7762510536713,16.66666666666663
30,3895.6875,754.3803418803418,716.6666666666666,172.04042070913093,20.83333333333337
30,3900.6875,753.0982905982906,716.6666666666666,157.69353058272338,20.83333333333337
30,3905.6875,758.6538461538462,720.8333333333334,170.07314983058714,29.16666666666663
30,3910.6875,732.1138211382113,725.0,143.01516255581856,25.0
30,3915.6875,703.4722222222222,725.0,114.15307863275939,16.666666666666686
30,3920.6875,712.3015873015873,725.0,128.52401227722532,20.833333333333258
30,3925.6875,707.6550387596899,720.8333333333334,127.70528341394919,16.66666666666663
30,3930.6875,703.0038759689922,712.5,129.18690823667637,16.66666666666663
30,3935.6875,734.2479674796748,716.6666666666666,144.82242537535032,12.499999999999886
30,3940.6875,727.1341463414634,712.5,149.48732396795478,8.333333333333371
30,3945.6875,742.0731707317074,716.6666666666666,154.01119660226584,12.499999999999886
30,3950.6875,729.0674603174602,720.8333333333334,132.7460647093981,12.5
30,3955.6875,741.9791666666666,727.0833333333333,145.97943688612355,10.416666666666742
30,3960.6875,733.0284552845528,729.1666666666666,155.69175343196844,8.333333333333371
30,3965.6875,705.3294573643411,729.1666666666666,126.17937538670476,12.500000000000114
30,3970.6875,712.6984126984127,729.1666666666666,122.58490911698092,12.500000000000057
30,3975.6875,704.0674603174602,722.9166666666667,128.45657190881056,16.66666666666663
30,3980.6875,696.7054263565892,720.8333333333334,131.24467153310417,25.0
30,3985.6875,689.0151515151516,720.8333333333334,114.63517470351181,20.83333333333337
30,3990.6875,690.1515151515151,720.8333333333334,107.52189740431267,20.83333333333337
30,3995.6875,680.6818181818181,718.75,128.5292816866293,22.916666666666742
30,4000.6875,680.925925925926,716.6666666666666,140.41191456555276,29.166666666666742
30,4005.6875,663.1340579710146,708.3333333333333,132.561328083144,39.58333333333343
30,4010.6875,657.962962962963,687.5,133.14031430806986,54.16666666666674
30,4015.6875,662.5925925925926,687.5,134.8092112161916,79.16666666666674
30,4020.6875,669.537037037037,700.0,137.16621050445565,66.66666666666674
30,4025.6875,686.1434108527131,716.6666666666666,129.90928652992218,41.66666666666663
30,4030.6875,680.965909090909,716.6666666666666,117.37533151827573,35.416666666666686
30,4035.6875,699.4186046511629,725.0,108.04135483517594,37.5
30,4040.6875,707.6388888888889,735.4166666666666,103.98934772334967,31.250000000000114
30,4045.6875,704.6511627906978,733.3333333333333,104.26665559128881,29.166666666666742
30,4050.6875,694.0891472868217,725.0,108.90505639310656,33.33333333333326
30,4055.6875,663.2246376811595,720.8333333333334,105.01067092979203,39.58333333333326
30,4060.6875,652.4456521739131,710.4166666666667,113.05103760750328,54.16666666666663
30,4065.6875,645.1992753623189,702.0833333333334,109.39990418871612,56.249999999999886
30,4070.6875,638.3680555555555,683.3333333333334,109.6582859024373,79.16666666666669
30,4075.6875,630.2304964539006,679.1666666666667,113.18720627029693,83.33333333333337
30,4080.6875,658.876811594203,704.1666666666667,129.8372934059813,54.166666666666515
30,4085.6875,666.5740740740741,725.0,131.00623373418767,33.33333333333337
30,4090.6875,691.8650793650793,737.5,141.1754767223094,20.833333333333258
30,4095.6875,695.9302325581397,737.5,154.48671298047205,29.166666666666742
30,4100.6875,698.7403100775193,737.5,157.21865062264484,33.33333333333337
30,4105.6875,722.1230158730159,737.5,160.71299073910822,29.166666666666686
30,4110.6875,701.984126984127,737.5,153.673508346027,33.33333333333337
30,4115.6875,723.6788617886178,737.5,161.5099084948209,33.33333333333337
30,4120.6875,714.3410852713178,737.5,144.5416215550286,33.33333333333326
30,4125.6875,704.6511627906976,737.5,135.76712679021273,33.33333333333326
30,4130.6875,706.25,737.5,132.7197837142598,31.25
30,4135.6875,707.8373015873016,739.5833333333334,132.66538223065382,29.166666666666686
30,4140.6875,716.2698412698412,743.75,134.82652686841587,29.166666666666686
30,4145.6875,717.3611111111112,737.5,128.37225107643707,29.166666666666742
30,4150.6875,711.6071428571428,739.5833333333334,132.19962537936792,31.25
30,4155.6875,726.1178861788618,750.0,128.002225696266,25.0
30,4160.6875,723.4126984126984,745.8333333333334,132.88782398834246,29.16666666666663
30,4165.6875,700.484496124031,745.8333333333334,130.70705064088952,29.16666666666663
30,4170.6875,688.1628787878789,733.3333333333333,132.69877824453468,29.166666666666515
30,4175.6875,685.8901515151515,745.8333333333334,117.70103448280632,27.083333333333314
30,4180.6875,678.4090909090909,745.8333333333334,123.4178709567855,31.249999999999943
30,4185.6875,682.5757575757575,743.75,134.27860395954704,31.25
30,4190.6875,686.8217054263565,741.6666666666667,129.14403998106434,29.166666666666742
30,4195.6875,681.344696969697,727.0833333333333,131.542259927882,37.500000000000114
30,4200.6875,679.3560606060606,727.0833333333333,132.91162278543882,43.75
30,4205.6875,682.0075757575759,722.9166666666667,146.3757154396595,47.91666666666663
30,4210.6875,679.5454545454545,727.0833333333333,150.56637845131172,39.583333333333485
30,4215.6875,663.3333333333333,716.6666666666666,138.01441880462997,45.83333333333337
30,4220.6875,661.141304347826,714.5833333333333,140.66380972783924,56.250000000000114
30,4225.6875,666.7592592592591,708.3333333333334,137.2831419184249,62.5
30,4230.6875,676.5151515151515,733.3333333333333,132.03733918183676,37.500000000000114
30,4235.6875,670.5492424242425,733.3333333333333,116.67150366243932,37.500000000000114
30,4240.6875,677.6851851851851,733.3333333333333,114.7266856568067,37.500000000000114
30,4245.6875,674.5370370370371,733.3333333333333,113.67311414714656,37.500000000000114
30,4250.6875,681.3953488372092,712.5,113.35415321868751,58.33333333333337
30,4255.6875,698.6434108527133,720.8333333333334,115.52989593043677,45.83333333333337
30,4260.6875,705.3294573643411,712.5,119.59313459292731,50.0
30,4265.6875,705.8531746031746,704.1666666666667,122.23936491102009,43.75
30,4270.6875,730.9959349593496,695.8333333333333,131.45832930694593,41.66666666666663
30,4275.6875,729.6747967479673,695.8333333333333,138.0204642194788,45.833333333333485
30,4280.6875,724.0079365079365,704.1666666666667,131.37796872833303,41.66666666666674
30,4285.6875,727.3373983739837,704.1666666666667,138.3466634531454,45.83333333333326
30,4290.6875,703.5714285714286,702.0833333333334,148.19536445932408,45.833333333333314
30,4295.6875,693.844696969697,697.9166666666666,157.85190127483972,56.25
30,4300.6875,673.9583333333334,683.3333333333334,141.84930372652613,56.25000000000006
30,4305.6875,688.0813953488371,683.3333333333334,142.2361958603416,45.83333333333326
30,4310.6875,677.2727272727274,683.3333333333334,153.70755686481473,64.58333333333331
30,4315.6875,668.148148148148,683.3333333333334,136.4287805020278,58.33333333333337
30,4320.6875,679.9074074074073,691.6666666666666,132.479179589441,79.16666666666674
30,4325.6875,690.4356060606061,706.25,112.79776680530948,56.25
30,4330.6875,682.7651515151515,714.5833333333333,114.65806551357393,47.91666666666663
30,4335.6875,678.0555555555555,716.6666666666666,111.84009598845608,50.000000000000114
30,4340.6875,689.7727272727271,718.75,94.75273199656452,43.75
30,4345.6875,687.5000000000001,720.8333333333334,100.82027912166552,50.00000000000006
30,4350.6875,689.0503875968992,725.0,92.92971497023635,41.66666666666663
30,4355.6875,698.6111111111111,731.25,109.06828041291958,35.41666666666674
30,4360.6875,695.4457364341085,729.1666666666666,108.95659371235769,37.5
30,4365.6875,690.406976744186,725.0,108.40784557361219,33.33333333333326
30,4370.6875,684.659090909091,725.0,116.04128038177926,39.583333333333314
30,4375.6875,696.124031007752,720.8333333333334,145.2949112466013,33.33333333333326
30,4380.6875,687.405303030303,706.25,149.1266799192228,56.24999999999994
30,4385.6875,680.4924242424242,704.1666666666667,152.76778054719048,66.66666666666663
30,4390.6875,701.1627906976744,708.3333333333334,161.0161330129353,75.0
30,4395.6875,714.3849206349206,718.75,169.28883004631115,77.08333333333326
30,4400.6875,715.8730158730159,720.8333333333334,167.5440273388333,56.25
30,4405.6875,700.484496124031,720.8333333333334,142.7080344172677,50.000000000000114
30,4410.6875,698.6434108527133,720.8333333333334,139.13684492470824,33.33333333333326
30,4415.6875,706.7829457364342,725.0,137.3918022346121,25.0
30,4420.6875,698.8372093023256,720.8333333333334,137.66922481371662,20.83333333333337
30,4425.6875,707.4404761904761,722.9166666666667,129.60859266232555,20.833333333333314
30,4430.6875,703.968253968254,727.0833333333333,136.42550225964249,22.916666666666742
30,4435.6875,707.2420634920635,722.9166666666667,132.43171888119497,22.91666666666663
30,4440.6875,714.6825396825398,733.3333333333333,131.7559068243037,16.666666666666686
30,4445.6875,705.8531746031747,725.0,136.64292973706563,25.0
30,4450.6875,720.2380952380952,735.4166666666666,132.81967696556606,14.583333333333371
30,4455.6875,705.7539682539683,735.4166666666666,130.71603015477652,14.583333333333371
30,4460.6875,726.1178861788618,733.3333333333333,147.39645727266029,16.66666666666663
30,4465.6875,724.2063492063493,741.6666666666667,148.71638587438522,14.5833333333332
30,4470.6875,735.2083333333334,737.5,162.56148847624564,14.583333333333314
30,4475.6875,737.3983739837399,741.6666666666667,160.38822205844096,16.666666666666742
30,4480.6875,722.7642276422765,741.6666666666667,154.26825920926834,20.833333333333258
30,4485.6875,720.4457364341085,737.5,149.3781586676739,20.83333333333337
30,4490.6875,715.1785714285714,737.5,142.05119212007082,20.833333333333314
30,4495.6875,708.9285714285716,733.3333333333333,148.42662701889958,29.166666666666742
30,4500.6875,711.4341085271318,741.6666666666667,127.72846601729314,25.0
30,4505.6875,707.8488372093024,737.5,109.08700482473431,25.0
30,4510.6875,703.5852713178294,737.5,111.55386017390782,29.16666666666663
30,4515.6875,721.0365853658537,737.5,124.33486656893739,29.16666666666663
30,4520.6875,706.7829457364342,733.3333333333333,111.028081288034,29.166666666666742
30,4525.6875,714.6825396825396,739.5833333333334,107.99759613858305,27.08333333333337
30,4530.6875,706.4484126984128,739.5833333333334,112.73200400248511,27.08333333333337
30,4535.6875,700.5952380952381,739.5833333333334,118.56959777306575,27.08333333333337
30,4540.6875,712.5000000000001,741.6666666666667,112.07198011227993,18.750000000000057
30,4545.6875,688.2575757575759,735.4166666666666,101.50384378451045,24.999999999999943
30,4550.6875,698.1589147286821,741.6666666666667,100.59471933220105,25.0
30,4555.6875,682.1022727272727,729.1666666666666,107.70381925471858,31.25
30,4560.6875,682.5757575757575,729.1666666666666,108.32689578097367,35.41666666666674
30,4565.6875,670.3703703703704,725.0,113.58630350775871,41.66666666666674
30,4570.6875,670.4629629629629,729.1666666666666,113.581440150127,37.500000000000114
30,4575.6875,684.1856060606061,737.5,135.72699845060185,33.33333333333337
30,4580.6875,682.2916666666666,733.3333333333333,133.08821036337554,35.4166666666668
30,4585.6875,703.3730158730159,745.8333333333334,122.47531032384097,20.83333333333337
30,4590.6875,711.0119047619047,754.1666666666666,120.05398172033568,16.666666666666742
30,4595.6875,712.9960317460318,747.9166666666667,113.30150490474159,18.750000000000057
30,4600.6875,697.5775193798448,741.6666666666667,121.81875332838979,25.0
30,4605.6875,687.1124031007752,737.5,105.18083269953719,29.166666666666742
30,4610.6875,693.8953488372094,741.6666666666667,100.94767898864995,20.833333333333258
30,4615.6875,667.5724637681159,727.0833333333333,106.33815530790808,39.583333333333485
30,4620.6875,663.677536231884,716.6666666666667,110.38185350378366,54.16666666666663
30,4625.6875,665.1851851851851,729.1666666666666,115.62083856678537,37.500000000000114
30,4630.6875,664.5370370370371,708.3333333333334,118.3310066399989,49.999999999999886
30,4635.6875,680.1136363636364,741.6666666666667,112.01937109110922,33.33333333333326
30,4640.6875,666.3888888888888,733.3333333333333,117.83237966267886,37.500000000000114
30,4645.6875,673.5795454545455,741.6666666666667,120.96839278299834,33.33333333333326
30,4650.6875,666.7592592592592,733.3333333333333,122.53403750763981,33.333333333333485
30,4655.6875,689.8674242424241,743.75,130.6179339769823,27.08333333333337
30,4660.6875,698.2558139534884,745.8333333333334,128.0263042831785,29.16666666666663
30,4665.6875,697.1899224806201,745.8333333333334,147.28226051057524,29.166666666666742
30,4670.6875,712.5992063492063,745.8333333333334,139.57533375705282,22.916666666666686
30,4675.6875,721.9246031746031,747.9166666666667,136.6088376678884,22.91666666666663
30,4680.6875,739.6341463414633,754.1666666666666,124.0663813107512,20.83333333333337
30,4685.6875,714.8809523809523,752.0833333333333,119.25533562693792,22.916666666666686
30,4690.6875,699.0310077519381,745.8333333333334,129.41552195353242,29.16666666666663
30,4695.6875,683.2386363636365,739.5833333333334,111.9747595089603,35.41666666666663
30,4700.6875,668.4259259259259,729.1666666666666,116.7088968783012,45.83333333333337
30,4705.6875,668.2765151515151,731.25,121.14939921095554,43.75
30,4710.6875,665.0,729.1666666666666,116.87413911528671,37.500000000000114
30,4715.6875,660.6481481481483,716.6666666666666,123.90478393752122,54.16666666666674
30,4720.6875,659.537037037037,716.6666666666666,120.49856389232295,54.16666666666674
30,4725.6875,665.1268115942029,722.9166666666666,116.90570318852379,39.58333333333337
30,4730.6875,675.4734848484849,739.5833333333334,116.16800930781166,27.08333333333337
30,4735.6875,683.7121212121212,741.6666666666667,112.48319635422212,29.16666666666663
30,4740.6875,687.0265151515151,747.9166666666667,114.57572529037861,31.249999999999886
30,4745.6875,704.4573643410853,758.3333333333333,109.04222941138129,29.166666666666742
30,4750.6875,717.6587301587301,760.4166666666666,96.42495679645971,27.08333333333337
30,4755.6875,733.8541666666666,762.5,109.06715427541828,29.16666666666663
30,4760.6875,736.0772357723578,754.1666666666666,103.35773299001235,33.33333333333337
30,4765.6875,739.2276422764228,745.8333333333334,91.09183214464859,25.0
30,4770.6875,743.5416666666666,739.5833333333334,128.12319764558163,35.41666666666674
30,4775.6875,736.7708333333334,737.5,128.13340341422614,18.749999999999943
30,4780.6875,724.5934959349593,737.5,142.70393812589606,25.0
30,4785.6875,722.4206349206348,737.5,140.08548608636502,25.0
30,4790.6875,729.7764227642276,737.5,162.98155404215095,33.33333333333326
30,4795.6875,722.560975609756,733.3333333333333,169.64263809917188,41.66666666666663
30,4800.6875,702.9069767441862,716.6666666666666,144.81085685243156,45.83333333333337
30,4805.6875,705.1356589147287,716.6666666666666,144.7774622166429,45.83333333333337
30,4810.6875,726.686507936508,745.8333333333334,126.856336398806,27.08333333333337
30,4815.6875,724.0853658536586,750.0,114.28944202447387,16.666666666666742
30,4820.6875,708.7209302325581,745.8333333333334,89.65050985116807,20.83333333333337
30,4825.6875,705.329457364341,741.6666666666667,88.68400361872868,20.833333333333258
30,4830.6875,712.797619047619,741.6666666666667,99.31759393852386,20.833333333333258
30,4835.6875,719.3452380952381,741.6666666666667,114.17868842323568,18.75
30,4840.6875,708.6309523809524,729.1666666666666,121.6188821171192,25.0
30,4845.6875,697.3837209302327,720.8333333333334,126.3191742226857,25.000000000000114
30,4850.6875,700.1984126984128,718.75,146.66560530886872,31.25
30,4855.6875,714.3849206349206,722.9166666666667,150.2572387232873,31.25
30,4860.6875,722.4206349206348,737.5,139.39156035316498,25.0
30,4865.6875,707.936507936508,731.25,134.94581845768838,31.25
30,4870.6875,714.186507936508,731.25,128.14161692036694,31.25
30,4875.6875,708.2364341085272,737.5,131.57159634093236,29.166666666666742
30,4880.6875,713.8888888888889,737.5,124.87685894765431,29.166666666666686
30,4885.6875,699.6124031007753,741.6666666666667,120.00542161986554,25.0
30,4890.6875,680.8712121212121,727.0833333333333,128.4231481929105,39.58333333333337
30,4895.6875,683.4280303030305,720.8333333333333,119.3811042798615,35.41666666666663
30,4900.6875,658.6050724637681,704.1666666666667,129.50940839409014,60.41666666666663
30,4905.6875,668.2407407407408,716.6666666666666,130.0200574831579,45.83333333333337
30,4910.6875,662.7717391304348,716.6666666666666,115.33098562530051,45.83333333333337
30,4915.6875,673.2007575757575,727.0833333333333,115.05109852031211,39.583333333333485
30,4920.6875,688.7596899224806,733.3333333333333,105.23474202468542,33.33333333333326
30,4925.6875,681.8181818181819,743.75,114.79707305566224,27.08333333333337
30,4930.6875,698.8372093023256,745.8333333333334,118.82681858615503,20.83333333333337
30,4935.6875,703.6706349206348,745.8333333333334,113.03584514388311,20.83333333333337
30,4940.6875,702.3809523809523,739.5833333333334,112.47230484584385,22.91666666666663
30,4945.6875,685.5113636363636,729.1666666666666,119.05598968230957,33.33333333333337
30,4950.6875,686.3636363636364,731.25,140.92476630473996,35.416666666666686
30,4955.6875,698.3527131782946,737.5,134.82284186870316,29.166666666666742
30,4960.6875,705.0595238095239,743.75,122.43138569205915,18.75
30,4965.6875,699.7093023255813,745.8333333333334,128.30741901324447,20.83333333333337
30,4970.6875,693.1818181818182,741.6666666666667,131.135257796842,25.0
30,4975.6875,699.4186046511629,741.6666666666667,126.1507264473409,25.0
30,4980.6875,686.1742424242425,743.75,109.69173952058092,22.916666666666742
30,4985.6875,690.2131782945737,741.6666666666667,124.37304317984928,25.0
30,4990.6875,693.1201550387598,741.6666666666667,124.94007730682617,25.0
30,4995.6875,686.1742424242425,733.3333333333333,125.05739227435465,33.333333333333485
30,5000.6875,695.7364341085271,750.0,121.88068387266038,25.0
30,5005.6875,698.2558139534884,750.0,124.94453980691767,25.0
30,5010.6875,692.1511627906976,745.8333333333334,129.78350315203645,29.166666666666742
30,5015.6875,676.0185185185186,725.0,114.812634048476,50.0
30,5020.6875,668.0555555555554,704.1666666666667,111.01716356519205,66.66666666666663
30,5025.6875,674.2424242424241,714.5833333333333,107.44369629759456,56.25
30,5030.6875,671.4015151515151,714.5833333333333,103.71254074971857,47.91666666666674
30,5035.6875,657.2222222222222,700.0,103.73927472858155,62.5
30,5040.6875,671.5740740740741,708.3333333333334,100.32809532508848,54.16666666666663
30,5045.6875,690.5038759689922,741.6666666666667,98.93750023561913,20.833333333333258
30,5050.6875,697.0930232558139,754.1666666666666,101.07938824480432,12.499999999999886
30,5055.6875,696.6085271317829,750.0,104.78883959846469,12.5
30,5060.6875,708.9147286821706,758.3333333333333,103.58800141502915,16.666666666666515
30,5065.6875,714.1472868217055,758.3333333333333,103.41450478856653,12.500000000000114
30,5070.6875,715.2777777777777,756.25,99.22918823436635,14.583333333333371
30,5075.6875,698.7403100775193,750.0,110.06902777844473,20.83333333333337
30,5080.6875,689.2992424242424,745.8333333333334,115.10372571655245,33.33333333333326
30,5085.6875,684.8484848484849,745.8333333333334,116.53540133836063,31.25
30,5090.6875,670.5555555555554,729.1666666666666,119.5609603186727,41.66666666666674
30,5095.6875,678.6821705426357,741.6666666666667,118.68021934130995,33.33333333333326
30,5100.6875,692.7325581395348,737.5,151.43737307001777,41.66666666666663
30,5105.6875,687.9734848484849,729.1666666666667,154.98868402129725,45.83333333333326
30,5110.6875,704.9603174603175,752.0833333333333,149.35565676607916,27.08333333333337
30,5115.6875,711.9047619047619,758.3333333333333,148.0867464542867,20.83333333333337
30,5120.6875,692.34496124031,741.6666666666667,158.9688848267296,37.499999999999886
30,5125.6875,693.1818181818182,739.5833333333334,155.8197329312868,35.41666666666663
30,5130.6875,671.4015151515151,725.0,131.85221112687597,50.0
30,5135.6875,672.064393939394,731.25,132.782837493025,43.75
30,5140.6875,674.537037037037,737.5,132.24944811368727,41.66666666666663
30,5145.6875,665.2777777777778,720.8333333333334,134.70237019204055,50.0
30,5150.6875,698.062015503876,758.3333333333333,121.32613260976417,25.000000000000114
30,5155.6875,706.5476190476192,760.4166666666666,118.21398014868582,22.916666666666742
30,5160.6875,720.1388888888889,758.3333333333333,126.01524253238907,20.833333333333428
30,5165.6875,735.4674796747968,762.5,112.50047048983218,12.5
30,5170.6875,748.8541666666666,758.3333333333333,142.00558848749904,25.000000000000114
30,5175.6875,757.2916666666666,758.3333333333333,142.6678735770501,27.08333333333337
30,5180.6875,733.0208333333333,733.3333333333333,159.58342399185122,45.833333333333314
30,5185.6875,736.0772357723577,720.8333333333334,170.57299715290102,50.000000000000114
30,5190.6875,716.765873015873,714.5833333333333,165.86057119745348,43.75
30,5195.6875,711.5079365079365,708.3333333333334,165.64935847317915,37.500000000000114
30,5200.6875,685.4166666666666,706.25,155.14824743505977,35.41666666666674
30,5205.6875,676.7992424242424,708.3333333333334,151.0150777914012,41.66666666666663
30,5210.6875,694.9810606060605,708.3333333333334,161.60326902022146,41.666666666666686
30,5215.6875,683.7121212121212,691.6666666666667,156.8700698542193,58.33333333333326
30,5220.6875,688.4469696969697,683.3333333333334,150.00501616387578,66.66666666666663
30,5225.6875,709.6899224806201,704.1666666666667,158.55435943557524,79.16666666666663
30,5230.6875,714.0873015873016,720.8333333333333,145.45087008050214,64.58333333333343
30,5235.6875,722.0528455284554,745.8333333333334,140.23245799893388,62.5
30,5240.6875,730.7926829268292,750.0,151.08656817867973,62.5
30,5245.6875,714.3849206349206,750.0,153.1323863904911,39.583333333333314
30,5250.6875,728.3536585365854,754.1666666666666,149.6965086949163,29.166666666666742
30,5255.6875,705.8531746031747,741.6666666666667,142.56072353500855,29.16666666666663
30,5260.6875,698.8372093023256,741.6666666666667,142.95147310142644,29.16666666666663
30,5265.6875,704.5454545454546,720.8333333333333,153.26395617723065,37.5
30,5270.6875,694.5736434108528,716.6666666666666,138.17635146292318,37.5
30,5275.6875,715.5753968253969,733.3333333333333,140.36965909924464,27.083333333333258
30,5280.6875,716.3690476190476,731.25,140.71112721496507,29.16666666666663
30,5285.6875,725.4065040650407,733.3333333333333,151.63405349347417,33.333333333333485
30,5290.6875,742.3958333333334,741.6666666666667,142.08675616851147,27.08333333333337
30,5295.6875,736.25,741.6666666666667,130.24672510934548,25.0
30,5300.6875,719.4444444444445,741.6666666666667,121.83203299533326,25.0
30,5305.6875,704.2635658914729,741.6666666666667,115.07376419969705,20.83333333333337
30,5310.6875,706.3492063492064,739.5833333333334,144.36173329523706,25.000000000000057
30,5315.6875,688.0813953488372,733.3333333333333,135.67689098057485,29.166666666666742
30,5320.6875,688.4469696969699,722.9166666666667,152.68078102694028,39.58333333333326
30,5325.6875,702.0348837209302,720.8333333333334,159.4736819529615,41.66666666666663
30,5330.6875,714.9801587301588,729.1666666666666,152.0970717812103,33.33333333333337
30,5335.6875,720.8333333333333,729.1666666666666,150.2024097306328,33.33333333333337
30,5340.6875,711.6071428571429,729.1666666666666,128.72016886197144,33.33333333333337
30,5345.6875,729.6626984126984,731.25,115.7564755725805,31.25
30,5350.6875,728.8617886178862,729.1666666666666,112.7596934884525,33.33333333333337
30,5355.6875,717.063492063492,722.9166666666667,97.5817422084701,33.333333333333314
30,5360.6875,711.1111111111111,720.8333333333334,109.57568857483213,35.41666666666663
30,5365.6875,710.0775193798451,725.0,115.47804567472316,41.66666666666663
30,5370.6875,703.6821705426356,716.6666666666666,114.72739609736807,37.499999999999886
30,5375.6875,690.8143939393939,718.75,125.91903604350472,35.41666666666663
30,5380.6875,684.8484848484849,722.9166666666667,113.34947341856474,37.5
30,5385.6875,682.0075757575759,733.3333333333333,116.70394174488099,37.500000000000114
30,5390.6875,681.2499999999999,733.3333333333333,115.28984090552241,37.50000000000006
30,5395.6875,683.8068181818181,735.4166666666666,110.3392697481514,33.33333333333337
30,5400.6875,702.422480620155,737.5,139.72831418211626,29.166666666666742
30,5405.6875,706.9444444444445,737.5,134.57773801787957,29.166666666666686
30,5410.6875,718.9024390243902,737.5,140.1824752064735,29.166666666666742
30,5415.6875,720.630081300813,737.5,145.71707038048427,37.5
30,5420.6875,735.4674796747968,745.8333333333334,138.8448185501043,37.5
30,5425.6875,745.8333333333334,745.8333333333334,128.98508742400332,37.5
30,5430.6875,729.5731707317074,745.8333333333334,106.37984255056978,37.5
30,5435.6875,724.0853658536586,745.8333333333334,116.35192736998401,37.5
30,5440.6875,714.484126984127,747.9166666666667,110.84196011125921,35.416666666666686
30,5445.6875,723.4126984126984,747.9166666666667,117.20965533458447,37.5
30,5450.6875,706.9444444444445,745.8333333333334,130.0753724936378,33.33333333333326
30,5455.6875,698.1150793650793,750.0,135.7635562616166,33.333333333333314
30,5460.6875,706.25,731.25,163.21956071500742,47.91666666666663
30,5465.6875,722.9166666666667,731.25,163.4347463910697,56.25
30,5470.6875,711.4087301587302,708.3333333333334,162.8164511073549,68.74999999999994
30,5475.6875,714.9801587301588,708.3333333333334,157.6527400747945,64.58333333333331
30,5480.6875,724.1071428571429,708.3333333333334,148.96474192901852,60.416666666666686
30,5485.6875,718.4523809523808,706.25,150.20351724613104,81.25
30,5490.6875,724.3055555555555,727.0833333333333,113.60648525246367,64.58333333333331
30,5495.6875,717.1626984126984,741.6666666666667,105.45826238763897,47.91666666666657
30,5500.6875,723.2142857142857,760.4166666666666,107.04416993319171,31.25
30,5505.6875,701.1627906976745,745.8333333333334,106.65025598197732,41.66666666666663
30,5510.6875,692.0542635658913,745.8333333333334,114.43014273943746,37.5
30,5515.6875,680.1136363636364,733.3333333333333,117.71697638009317,54.16666666666674
30,5520.6875,667.7777777777778,708.3333333333334,123.2337333294055,79.16666666666663
30,5525.6875,659.351851851852,670.8333333333333,116.44376553988997,83.33333333333337
30,5530.6875,673.7037037037037,700.0,117.21940970344181,95.83333333333326
30,5535.6875,682.3863636363636,700.0,110.35993363464851,83.33333333333337
30,5540.6875,689.3939393939394,700.0,108.5993102877407,85.41666666666669
30,5545.6875,712.2023809523808,722.9166666666667,104.7216631942039,56.25000000000006
30,5550.6875,723.3739837398374,737.5,110.39259977014238,58.33333333333326
30,5555.6875,748.5416666666667,762.5,114.96217481492178,37.5
30,5560.6875,736.1458333333334,747.9166666666667,122.26854515038151,41.66666666666663
30,5565.6875,753.2051282051282,766.6666666666667,132.71327016644796,37.5
30,5570.6875,750.4166666666667,762.5,136.58495055440304,35.416666666666686
30,5575.6875,749.1869918699188,766.6666666666667,135.5615235230543,33.33333333333326
30,5580.6875,734.2479674796748,750.0,134.21101814530326,37.5
30,5585.6875,723.7103174603175,756.25,129.65416820406543,37.49999999999994
30,5590.6875,736.280487804878,775.0,126.07263360098985,33.33333333333326
30,5595.6875,708.5271317829457,770.8333333333334,133.2959815252651,29.16666666666663
30,5600.6875,704.8611111111111,770.8333333333334,135.1562275632974,29.16666666666663
30,5605.6875,699.6031746031746,762.5,134.57818750957276,35.416666666666686
30,5610.6875,689.7286821705426,762.5,135.37728009998426,33.33333333333337
30,5615.6875,671.6856060606061,745.8333333333334,140.9884000942023,50.0
30,5620.6875,670.3703703703704,741.6666666666667,137.97616765045393,41.66666666666674
30,5625.6875,682.4810606060605,756.25,131.65298827933972,43.75
30,5630.6875,670.648148148148,712.5,132.24268526401048,62.5
30,5635.6875,664.4021739130435,718.75,136.78322299878195,60.41666666666663
30,5640.6875,671.0185185185184,729.1666666666666,134.4178066523557,54.16666666666674
30,5645.6875,688.3522727272727,750.0,128.89155355838457,41.66666666666663
30,5650.6875,669.7222222222222,733.3333333333333,136.96924652983054,58.33333333333337
30,5655.6875,663.7037037037038,733.3333333333333,140.10565497751293,62.5
30,5660.6875,682.3863636363636,741.6666666666667,136.2088890765648,49.999999999999886
30,5665.6875,696.8023255813954,750.0,132.36202887378462,41.66666666666663
30,5670.6875,706.2015503875969,770.8333333333334,128.90196922272654,29.16666666666663
30,5675.6875,696.0271317829457,766.6666666666667,132.85801154038978,33.33333333333326
30,5680.6875,707.1428571428572,768.75,124.88913008037903,24.999999999999943
30,5685.6875,722.6190476190477,768.75,129.63344342969302,31.25
30,5690.6875,720.3373015873016,768.75,128.53142502766102,37.5
30,5695.6875,725.3048780487804,770.8333333333334,122.09609661632548,25.0
30,5700.6875,721.0365853658537,762.5,124.78436685491542,25.0
30,5705.6875,726.829268292683,758.3333333333333,117.36416786962278,25.000000000000114
30,5710.6875,720.2380952380952,758.3333333333333,123.64636797259575,31.25
30,5715.6875,701.5873015873016,758.3333333333333,118.49236558540835,27.083333333333428
30,5720.6875,699.9007936507937,756.25,117.64430716139576,22.91666666666663
30,5725.6875,687.784090909091,745.8333333333334,126.50386610277022,33.33333333333326
30,5730.6875,692.7083333333334,731.25,141.95173382224718,37.50000000000006
30,5735.6875,701.937984496124,741.6666666666667,139.7316164435818,37.499999999999886
30,5740.6875,708.3333333333334,743.75,135.72861193411276,35.41666666666663
30,5745.6875,724.8015873015873,747.9166666666667,121.88167458254352,25.0
30,5750.6875,719.1468253968254,752.0833333333333,129.61683788949966,27.083333333333258
30,5755.6875,717.8861788617887,750.0,129.97810947651698,29.16666666666663
30,5760.6875,726.829268292683,770.8333333333334,105.52879733227165,20.833333333333258
30,5765.6875,712.9960317460318,768.75,119.15963927255473,22.91666666666663
30,5770.6875,704.2635658914729,758.3333333333333,122.53687077427341,29.166666666666742
30,5775.6875,703.2738095238095,760.4166666666666,123.81051842828398,31.25
30,5780.6875,706.2984496124031,762.5,122.16484525234125,25.0
30,5785.6875,722.6190476190476,770.8333333333334,111.35233203916908,18.75
30,5790.6875,712.4999999999999,760.4166666666666,114.71214120028178,29.166666666666686
30,5795.6875,729.979674796748,770.8333333333334,101.94812266759577,24.999999999999886
30,5800.6875,732.3170731707318,775.0,99.77309538312733,20.83333333333337
30,5805.6875,719.6428571428572,775.0,114.56544839830804,22.916666666666686
30,5810.6875,736.5625,781.25,102.80298619591612,16.66666666666663
30,5815.6875,729.7764227642276,783.3333333333334,110.59561354670608,16.66666666666663
30,5820.6875,730.3861788617887,779.1666666666666,113.6524455853629,16.66666666666663
30,5825.6875,711.6071428571429,772.9166666666667,124.62863437429127,24.999999999999886
30,5830.6875,719.0040650406504,775.0,123.08973966517318,20.833333333333258
30,5835.6875,728.4552845528455,775.0,117.35623015459196,20.833333333333258
30,5840.6875,705.8139534883721,770.8333333333334,132.2286190061075,29.16666666666663
30,5845.6875,700.7751937984495,762.5,130.45078479487626,33.33333333333326
30,5850.6875,685.7007575757575,739.5833333333333,134.9956865017906,52.08333333333337
30,5855.6875,689.9621212121211,760.4166666666666,137.04357585923066,35.41666666666663
30,5860.6875,694.4767441860464,758.3333333333333,132.29294284546484,37.5
30,5865.6875,687.9734848484849,745.8333333333334,134.93830508725634,49.999999999999886
30,5870.6875,698.6434108527131,758.3333333333333,125.92488828114236,33.33333333333326
30,5875.6875,695.2519379844962,750.0,131.15967979260108,37.5
30,5880.6875,720.2235772357724,770.8333333333334,121.10444074890769,29.16666666666663
30,5885.6875,717.7579365079364,760.4166666666666,113.76717656657753,27.08333333333337
30,5890.6875,701.0658914728683,754.1666666666666,127.54386702330216,37.5
30,5895.6875,693.5077519379846,750.0,131.88794422788072,41.66666666666663
30,5900.6875,678.4090909090909,741.6666666666667,137.73697199911535,54.166666666666515
30,5905.6875,684.2803030303031,741.6666666666667,134.5056974707853,49.999999999999886
30,5910.6875,674.7222222222223,741.6666666666667,134.2134776233653,45.83333333333326
30,5915.6875,688.0813953488371,754.1666666666666,134.76899877890713,37.5
30,5920.6875,694.5075757575756,760.4166666666666,132.46072478483518,31.25
30,5925.6875,697.2868217054263,758.3333333333333,128.30577072382047,33.33333333333326
30,5930.6875,705.0595238095239,762.5,125.37388431864271,31.249999999999943
30,5935.6875,680.3030303030303,733.3333333333333,135.81854093957546,50.000000000000114
30,5940.6875,680.3030303030303,729.1666666666666,150.73935901923153,56.25000000000006
30,5945.6875,674.351851851852,725.0,151.7728658418103,62.5
30,5950.6875,672.4431818181818,725.0,152.74516423739684,66.66666666666663
30,5955.6875,678.6931818181819,727.0833333333333,146.54234046626428,64.58333333333337
30,5960.6875,690.530303030303,737.5,145.11412809055594,58.33333333333326
30,5965.6875,715.0793650793651,762.5,133.71690375462092,33.33333333333326
30,5970.6875,699.4186046511627,750.0,125.75361909069957,37.5
30,5975.6875,682.4810606060606,737.5,132.20079676972153,47.916666666666686
30,5980.6875,679.0719696969697,733.3333333333333,129.30409242354665,50.000000000000114
30,5985.6875,685.2272727272727,743.75,135.57185367042263,47.91666666666663
30,5990.6875,668.7962962962962,725.0,138.30007764231303,62.5
30,5995.6875,669.9074074074074,725.0,139.12858105039163,62.5
30,6000.6875,680.5871212121212,743.75,139.22874718306505,52.08333333333326
30,6005.6875,685.4651162790699,741.6666666666667,135.3742976850833,54.166666666666515
30,6010.6875,690.625,745.8333333333334,136.6742440941526,50.0
30,6015.6875,677.5568181818181,739.5833333333334,137.2964076156494,45.83333333333337
30,6020.6875,700.968992248062,750.0,146.78779835458278,37.5
30,6025.6875,708.6309523809524,752.0833333333333,143.89211149430798,35.41666666666674
30,6030.6875,721.7479674796747,754.1666666666666,134.7177869244486,33.33333333333337
30,6035.6875,719.8412698412698,758.3333333333333,134.93326641469866,31.25
30,6040.6875,719.3089430894308,762.5,136.64747101460875,29.166666666666742
30,6045.6875,721.9246031746032,772.9166666666667,135.9407760135715,22.916666666666515
30,6050.6875,701.4880952380952,745.8333333333334,125.18895416554881,39.583333333333314
30,6055.6875,679.5454545454545,735.4166666666666,133.59596887165043,45.833333333333314
30,6060.6875,673.2407407407406,733.3333333333333,135.20084459139562,45.83333333333337
30,6065.6875,675.5555555555554,733.3333333333333,135.94332319467594,49.999999999999886
30,6070.6875,682.4999999999999,750.0,132.88751223907724,33.33333333333337
30,6075.6875,678.7878787878789,737.5,132.9324708770723,41.66666666666663
30,6080.6875,685.9848484848485,747.9166666666667,129.36840618796674,35.41666666666663
30,6085.6875,682.1969696969697,741.6666666666667,128.0013185934549,37.499999999999886
30,6090.6875,667.3148148148149,733.3333333333333,132.42754461785094,45.83333333333337
30,6095.6875,673.5795454545454,733.3333333333333,130.02168616891254,43.75000000000006
30,6100.6875,660.9259259259259,716.6666666666666,130.9363402436792,62.5
30,6105.6875,660.3703703703703,716.6666666666666,130.37866804784596,62.5
30,6110.6875,661.8659420289854,714.5833333333333,131.85806351165436,58.33333333333343
30,6115.6875,679.1666666666667,720.8333333333334,129.33066607974496,66.66666666666669
30,6120.6875,704.9418604651163,758.3333333333333,119.50991127856616,41.66666666666674
30,6125.6875,698.9341085271318,766.6666666666667,125.62704176937142,37.5
30,6130.6875,715.6746031746031,777.0833333333333,121.10045300771331,22.916666666666742
30,6135.6875,727.0833333333334,781.25,112.06914635030304,18.75
30,6140.6875,731.4024390243901,783.3333333333334,111.25896328192667,16.66666666666663
30,6145.6875,729.6747967479674,783.3333333333334,113.93450818111054,8.333333333333371
30,6150.6875,705.654761904762,772.9166666666667,121.42524434079208,18.749999999999886
30,6155.6875,708.234126984127,772.9166666666667,122.44505465133678,18.749999999999886
30,6160.6875,708.9285714285714,770.8333333333334,121.92203483537014,29.16666666666663
30,6165.6875,692.7325581395348,758.3333333333333,131.8935564668722,33.33333333333326
30,6170.6875,685.3682170542636,741.6666666666667,135.65492499274674,45.83333333333326
30,6175.6875,685.7954545454545,741.6666666666667,133.73340590453586,45.83333333333326
30,6180.6875,699.9031007751938,758.3333333333333,135.94140813299944,41.66666666666674
30,6185.6875,697.577519379845,758.3333333333333,134.53769238791443,41.66666666666674
30,6190.6875,693.6046511627908,758.3333333333333,133.6131390628652,33.33333333333337
30,6195.6875,712.5992063492064,775.0,126.74088572033847,27.08333333333337
30,6200.6875,718.9484126984127,775.0,119.96711658808705,25.0
30,6205.6875,718.9484126984127,777.0833333333333,122.10815593311735,25.0
30,6210.6875,715.3455284552846,766.6666666666667,122.5256457862547,33.33333333333326
30,6215.6875,710.1744186046511,750.0,132.70032751505804,50.0
30,6220.6875,728.760162601626,750.0,145.46025158088,58.33333333333337
30,6225.6875,712.3015873015875,718.75,144.22884010211763,74.99999999999994
30,6230.6875,706.5891472868217,687.5,148.35192655378134,75.0
30,6235.6875,699.515503875969,675.0,140.35106123156805,45.83333333333337
30,6240.6875,704.1666666666666,670.8333333333333,145.35219634361272,33.333333333333485
30,6245.6875,711.1111111111111,662.5,132.0558294652466,27.08333333333337
30,6250.6875,682.5925925925925,654.1666666666666,119.06122457126222,25.000000000000114
30,6255.6875,691.8604651162791,654.1666666666666,120.57976092070285,25.0
30,6260.6875,700.1984126984127,658.3333333333334,131.39132081081647,33.33333333333337
30,6265.6875,694.8643410852713,654.1666666666666,142.90089461684133,75.0
30,6270.6875,703.1746031746031,675.0,149.8215105728363,85.41666666666663
30,6275.6875,685.2272727272727,675.0,150.93500188642858,87.5
30,6280.6875,689.3410852713179,691.6666666666666,145.62996683397273,62.5
30,6285.6875,710.5620155038758,700.0,165.46028881160223,62.5
30,6290.6875,680.1136363636364,691.6666666666666,160.7723797929819,56.25
30,6295.6875,683.6174242424241,691.6666666666666,152.93848123785065,50.000000000000114
30,6300.6875,677.2727272727274,693.75,144.60712207805156,47.91666666666674
30,6305.6875,710.0198412698413,708.3333333333334,149.7232641568587,33.33333333333337
30,6310.6875,722.3214285714286,712.5,160.6585296022367,37.5
30,6315.6875,703.7698412698413,708.3333333333334,137.34380609873503,33.33333333333337
30,6320.6875,739.2276422764228,720.8333333333334,130.93207397188797,29.16666666666663
30,6325.6875,742.7083333333334,725.0,154.40398112569636,37.5
30,6330.6875,739.4308943089432,720.8333333333334,150.71904498662477,41.66666666666663
30,6335.6875,726.219512195122,716.6666666666666,142.24222512937607,37.5
30,6340.6875,728.150406504065,716.6666666666666,152.3079975506414,37.499999999999886
30,6345.6875,737.1951219512196,716.6666666666666,165.923840052694,37.499999999999886
30,6350.6875,714.781746031746,704.1666666666667,164.28739314032742,25.0
30,6355.6875,713.2936507936508,706.25,146.5451215210905,27.083333333333258
30,6360.6875,714.9801587301587,708.3333333333334,146.96298688928903,20.83333333333337
30,6365.6875,724.4047619047618,708.3333333333334,165.52600374911066,29.16666666666663
30,6370.6875,728.2520325203253,704.1666666666667,156.86687173254415,25.0
30,6375.6875,730.4878048780488,700.0,157.9667879573455,25.0
30,6380.6875,752.6041666666666,702.0833333333334,152.27000164509468,25.0
30,6385.6875,760.2083333333333,697.9166666666666,152.01328734658202,22.916666666666686
30,6390.6875,780.921052631579,697.9166666666666,166.5642466242881,41.666666666666686
30,6395.6875,774.780701754386,693.75,179.43215028096049,45.833333333333314
30,6400.6875,780.811403508772,706.25,181.2497785897069,56.25
30,6405.6875,756.1458333333334,706.25,175.04066351944522,47.916666666666686
30,6410.6875,761.431623931624,725.0,176.75011980420896,50.0
30,6415.6875,771.6880341880342,729.1666666666666,174.77580534431303,24.999999999999886
30,6420.6875,758.4375,731.25,162.71350071683378,14.583333333333371
30,6425.6875,767.8418803418803,733.3333333333333,156.04869698737951,16.66666666666663
30,6430.6875,752.6041666666666,731.25,138.31404812281235,14.583333333333371
30,6435.6875,780.1535087719299,735.4166666666666,144.02330465814575,18.75
30,6440.6875,759.5833333333333,725.0,140.49667696894554,12.5
30,6445.6875,750.625,722.9166666666667,146.68569588091532,18.75
30,6450.6875,721.2301587301588,718.75,149.7847640624094,18.75
30,6455.6875,708.8178294573644,720.8333333333334,142.92800206772202,20.83333333333337
30,6460.6875,707.9457364341085,716.6666666666666,156.7586006894657,29.166666666666742
30,6465.6875,693.7500000000001,716.6666666666666,136.45657656126988,27.083333333333428
30,6470.6875,696.6085271317829,712.5,151.0223532095267,37.5
30,6475.6875,708.234126984127,710.4166666666667,161.8602899669633,50.0
30,6480.6875,737.9166666666667,710.4166666666667,168.23196575560274,50.0
30,6485.6875,736.9918699186991,712.5,153.81490026444263,37.5
30,6490.6875,728.3536585365855,704.1666666666667,140.49830562008145,33.333333333333485
30,6495.6875,741.25,695.8333333333333,157.5181443896728,33.33333333333326
30,6500.6875,739.5833333333333,693.75,156.0222699423025,31.25
30,6505.6875,715.3455284552846,695.8333333333333,139.77424451913274,20.83333333333337
30,6510.6875,703.5852713178294,695.8333333333333,135.1885483829147,20.83333333333337
30,6515.6875,697.6190476190476,685.4166666666667,129.36204361220544,22.91666666666663
30,6520.6875,691.3759689922481,691.6666666666666,135.49950259101217,37.5
30,6525.6875,668.4259259259259,683.3333333333334,120.81533594055324,45.83333333333326
30,6530.6875,662.7717391304348,685.4166666666667,111.5318498423383,60.416666666666686
30,6535.6875,674.8148148148148,691.6666666666666,113.38371887015369,70.83333333333326
30,6540.6875,669.074074074074,691.6666666666666,102.00982545489342,70.83333333333337
30,6545.6875,682.6704545454545,729.1666666666666,106.75634849494726,47.916666666666686
30,6550.6875,707.8488372093024,758.3333333333333,106.46748400677143,37.5
30,6555.6875,720.8333333333334,766.6666666666667,103.35250936678763,24.999999999999886
30,6560.6875,734.4512195121952,775.0,99.7567544629215,20.833333333333258
30,6565.6875,729.0650406504066,775.0,104.33106945126904,20.83333333333337
30,6570.6875,737.9166666666666,779.1666666666666,100.01691452391034,18.75
30,6575.6875,734.2479674796748,779.1666666666666,108.95061395186264,12.5
30,6580.6875,733.4349593495934,779.1666666666666,109.14952077851217,16.66666666666663
30,6585.6875,738.0208333333334,779.1666666666666,97.93627054164783,18.75
30,6590.6875,719.6138211382114,770.8333333333334,110.48442850958425,29.16666666666663
30,6595.6875,708.9147286821706,762.5,118.14742478890528,37.5
30,6600.6875,705.9108527131783,737.5,116.67457653932681,41.66666666666663
30,6605.6875,704.8449612403101,737.5,117.38346351626868,45.83333333333337
30,6610.6875,690.6007751937984,729.1666666666666,119.51280697536477,41.66666666666674
30,6615.6875,680.3030303030303,729.1666666666666,126.14579396187955,50.00000000000006
30,6620.6875,700.5813953488372,737.5,122.1350972229851,54.16666666666663
30,6625.6875,695.2519379844961,737.5,127.45142954986005,54.16666666666663
30,6630.6875,695.7364341085271,754.1666666666666,130.81541295003638,54.16666666666674
30,6635.6875,697.4806201550388,762.5,130.70050485738997,41.66666666666674
30,6640.6875,702.422480620155,775.0,131.6273316210537,33.33333333333337
30,6645.6875,717.8571428571429,775.0,145.0320195065646,33.33333333333337
30,6650.6875,722.0238095238095,772.9166666666667,138.58217197558136,29.16666666666663
30,6655.6875,735.1626016260163,770.8333333333334,119.34445064488335,29.16666666666663
30,6660.6875,741.4583333333334,768.75,125.68526551931602,27.083333333333258
30,6665.6875,746.9791666666667,766.6666666666667,116.53681532856076,27.083333333333258
30,6670.6875,746.4583333333334,766.6666666666667,116.4434295847013,29.166666666666515
30,6675.6875,727.3373983739838,750.0,105.47120122866662,29.16666666666663
30,6680.6875,714.484126984127,741.6666666666667,119.81537179818771,39.583333333333314
30,6685.6875,721.0365853658536,758.3333333333333,129.0320239761514,33.33333333333337
30,6690.6875,707.2674418604652,745.8333333333334,123.60361921046022,29.166666666666742
30,6695.6875,690.8914728682171,741.6666666666667,132.806050073552,37.499999999999886
30,6700.6875,689.7286821705426,741.6666666666667,131.77834837159224,33.33333333333326
30,6705.6875,686.2689393939395,741.6666666666667,135.66451541972424,37.499999999999886
30,6710.6875,692.6356589147287,737.5,144.74319649286056,37.5
30,6715.6875,703.8759689922481,741.6666666666667,143.018166294504,37.499999999999886
30,6720.6875,706.7460317460317,752.0833333333334,145.2352788770048,35.416666666666686
30,6725.6875,716.6666666666666,764.5833333333334,139.40081806029963,39.58333333333337
30,6730.6875,711.6071428571429,754.1666666666667,145.7143408684508,50.0
30,6735.6875,719.3452380952381,768.75,141.37290629858248,39.58333333333337
30,6740.6875,720.3252032520325,775.0,122.63454601658445,33.33333333333337
30,6745.6875,696.8992248062015,741.6666666666667,129.0997427217163,62.5
30,6750.6875,712.1124031007752,754.1666666666666,118.60219133553248,41.66666666666663
30,6755.6875,707.3643410852712,754.1666666666666,125.60974699216796,41.66666666666663
30,6760.6875,708.7209302325581,754.1666666666666,126.89637546853169,41.66666666666663
30,6765.6875,717.1626984126984,758.3333333333333,121.25557840991071,39.58333333333337
30,6770.6875,716.9642857142857,766.6666666666667,129.1466443212918,37.49999999999994
30,6775.6875,723.313492063492,770.8333333333334,129.49263721407914,31.25
30,6780.6875,722.560975609756,770.8333333333334,131.98858197722151,33.33333333333337
30,6785.6875,730.8943089430894,775.0,127.41069724461022,33.33333333333337
30,6790.6875,732.5203252032521,770.8333333333334,118.50566790900031,33.33333333333337
30,6795.6875,734.6875,783.3333333333333,121.82721047845988,29.166666666666742
30,6800.6875,745.0203252032521,795.8333333333333,113.81644698520527,20.833333333333258
30,6805.6875,751.6025641025642,795.8333333333333,103.2530787342739,20.83333333333337
30,6810.6875,740.1422764227642,795.8333333333333,118.08202516903951,25.0
30,6815.6875,730.691056910569,775.0,123.98461240196754,29.16666666666663
30,6820.6875,732.8252032520326,787.5,124.26588290625688,29.16666666666663
30,6825.6875,741.5650406504064,795.8333333333333,117.63175165443204,20.83333333333337
30,6830.6875,723.4756097560976,770.8333333333334,124.18748461374176,29.16666666666663
30,6835.6875,735.0609756097562,783.3333333333334,135.90928222376849,29.166666666666742
30,6840.6875,735.3125,785.4166666666667,137.54365889364675,33.3333333333332
30,6845.6875,733.8414634146343,783.3333333333334,136.1078358795146,33.33333333333337
30,6850.6875,721.951219512195,770.8333333333334,142.45194240272383,41.66666666666663
30,6855.6875,720.2235772357724,770.8333333333334,141.52738550147623,37.500000000000114
30,6860.6875,719.1468253968254,770.8333333333334,144.66301465165265,37.50000000000006
30,6865.6875,692.8977272727273,758.3333333333334,139.3465379666585,43.75
30,6870.6875,675.5555555555555,737.5,141.601477871361,54.16666666666663
30,6875.6875,671.3068181818181,737.5,141.37628672643558,50.0
30,6880.6875,675.4629629629628,737.5,140.66945768131282,54.16666666666663
30,6885.6875,654.4326241134751,733.3333333333333,143.05163867634823,50.000000000000114
30,6890.6875,662.5,733.3333333333333,139.79376945986533,37.500000000000114
30,6895.6875,670.2651515151515,737.5,140.23613952791297,45.83333333333337
30,6900.6875,685.2272727272729,741.6666666666667,135.4288293448334,41.66666666666663
30,6905.6875,679.2592592592592,737.5,135.57970630616182,45.83333333333337
30,6910.6875,672.6325757575759,735.4166666666666,140.12613632759619,60.41666666666663
30,6915.6875,692.6356589147287,750.0,129.69948097364644,33.33333333333337
30,6920.6875,685.2272727272726,741.6666666666667,129.6843668341506,37.5
30,6925.6875,679.5370370370372,741.6666666666667,131.57224217217416,33.33333333333326
30,6930.6875,681.782945736434,741.6666666666667,128.96497071096908,33.33333333333337
30,6935.6875,710.3174603174604,756.25,142.12991599601744,35.41666666666663
30,6940.6875,726.7857142857143,764.5833333333334,131.5626288860026,27.083333333333258
30,6945.6875,703.968253968254,758.3333333333333,147.9419346932419,37.50000000000006
30,6950.6875,702.2286821705426,750.0,153.71380514838452,54.16666666666674
30,6955.6875,718.191056910569,770.8333333333334,148.00102083439046,41.66666666666663
30,6960.6875,729.3650793650793,781.25,141.63663114453078,35.41666666666663
30,6965.6875,696.9961240310078,766.6666666666667,140.54565098598462,37.5
30,6970.6875,692.0542635658915,750.0,138.96172877710802,45.83333333333326
30,6975.6875,700.1937984496125,758.3333333333333,135.4584901481545,33.33333333333337
30,6980.6875,698.9087301587302,758.3333333333333,136.95556022842212,33.33333333333337
30,6985.6875,689.0151515151515,750.0,136.25105465386957,43.74999999999994
30,6990.6875,676.5151515151515,750.0,143.04530650606193,52.08333333333337
30,6995.6875,688.3720930232558,750.0,136.27568850213848,50.0
30,7000.6875,699.8062015503875,762.5,133.55621713431483,33.33333333333326
30,7005.6875,702.9069767441861,762.5,133.35049146705362,37.5
30,7010.6875,716.1706349206349,772.9166666666667,124.2020683318391,27.083333333333258
30,7015.6875,721.031746031746,772.9166666666667,124.68779568619769,29.16666666666663
30,7020.6875,719.7420634920635,768.75,121.85425010564416,31.25
30,7025.6875,726.0912698412699,768.75,115.53259610185262,27.083333333333258
30,7030.6875,727.2357723577236,775.0,117.91040016098945,29.166666666666742
30,7035.6875,727.439024390244,775.0,117.30101209718691,25.0
30,7040.6875,719.047619047619,768.75,119.76908273204168,31.25
30,7045.6875,695.4457364341085,766.6666666666667,135.31761931274346,33.33333333333326
30,7050.6875,690.6976744186046,758.3333333333333,136.4493202806262,37.5
30,7055.6875,677.4621212121212,743.75,141.84416087273524,47.91666666666663
30,7060.6875,651.449275362319,739.5833333333334,145.42991129141444,52.08333333333326
30,7065.6875,651.0869565217391,737.5,146.59308650571532,54.16666666666663
30,7070.6875,645.0354609929077,733.3333333333333,148.1636749024269,54.16666666666674
30,7075.6875,676.8939393939394,743.75,142.86557934248705,54.166666666666686
30,7080.6875,691.6666666666667,750.0,137.6532335196406,45.83333333333326
30,7085.6875,710.1190476190477,775.0,134.11275888021916,29.166666666666742
30,7090.6875,724.8983739837399,783.3333333333334,126.74986236048183,20.83333333333337
30,7095.6875,730.2845528455284,779.1666666666666,118.71353383894848,25.000000000000114
30,7100.6875,741.4583333333334,783.3333333333334,112.39093320235787,20.83333333333337
30,7105.6875,729.6747967479675,775.0,117.95124317099271,25.0
30,7110.6875,715.2777777777778,775.0,130.18600757108658,29.166666666666686
30,7115.6875,707.65503875969,775.0,134.09976344011287,29.166666666666742
30,7120.6875,706.4922480620155,775.0,132.51953511521964,29.166666666666742
30,7125.6875,715.3769841269841,777.0833333333333,130.5978542651071,31.250000000000114
30,7130.6875,708.7301587301587,770.8333333333334,134.8045405879113,41.66666666666663
30,7135.6875,707.0736434108527,779.1666666666666,140.8840863856772,33.33333333333337
30,7140.6875,713.6904761904763,777.0833333333333,136.76443345909897,35.41666666666674
30,7145.6875,713.4920634920634,772.9166666666667,134.0201111004538,39.58333333333326
30,7150.6875,711.5079365079365,766.6666666666667,134.11170642406347,43.74999999999994
30,7155.6875,710.4166666666667,766.6666666666667,132.7165931814521,33.33333333333326
30,7160.6875,711.0465116279071,770.8333333333334,132.3621741271196,29.16666666666663
30,7165.6875,710.7142857142857,762.5,125.67279257520616,33.33333333333326
30,7170.6875,704.360465116279,762.5,131.69552592220688,37.5
30,7175.6875,696.7054263565892,750.0,135.12119210973222,50.0
30,7180.6875,705.717054263566,762.5,131.30281519810123,37.5
30,7185.6875,692.8977272727273,747.9166666666667,138.49790442312948,56.25
30,7190.6875,696.7054263565891,750.0,134.77506165825284,54.16666666666674
30,7195.6875,705.7539682539682,762.5,131.21717676087158,37.5
30,7200.6875,715.9722222222223,768.75,125.44607624100395,33.33333333333337
30,7205.6875,720.2235772357724,770.8333333333334,117.1402626113722,29.16666666666663
30,7210.6875,724.1869918699186,775.0,117.7745739580607,25.0
30,7215.6875,733.130081300813,779.1666666666666,111.09051934868202,25.0
30,7220.6875,721.7479674796748,775.0,118.91257947864719,25.0
30,7225.6875,724.2063492063492,775.0,118.24297368517514,25.0
30,7230.6875,732.7235772357723,779.1666666666666,112.68719370301689,25.000000000000114
30,7235.6875,739.5325203252032,775.0,108.34984630246107,25.0
30,7240.6875,731.9105691056911,770.8333333333334,112.22036912527274,29.16666666666663
30,7245.6875,716.5674603174602,768.75,117.51465952214977,31.25
30,7250.6875,727.439024390244,770.8333333333334,110.93422573319917,29.16666666666663
30,7255.6875,713.3928571428571,766.6666666666667,123.58116070448813,33.33333333333326
30,7260.6875,702.8100775193798,758.3333333333333,121.82041047892221,33.33333333333337
30,7265.6875,706.1507936507935,764.5833333333333,125.26813414815074,31.25
30,7270.6875,711.5079365079365,764.5833333333333,122.47728594450447,33.333333333333314
30,7275.6875,727.3373983739837,787.5,118.68802761748549,20.83333333333337
30,7280.6875,731.7460317460318,791.6666666666666,119.09476902139377,16.666666666666742
30,7285.6875,728.6585365853658,787.5,115.9396811038893,20.83333333333337
30,7290.6875,730.081300813008,791.6666666666666,119.18965467056194,25.0
30,7295.6875,722.0238095238095,770.8333333333334,123.74466439691606,37.5
30,7300.6875,726.1178861788618,770.8333333333334,117.76648412514417,33.33333333333337
30,7305.6875,718.9484126984128,768.75,123.28499100968914,33.33333333333337
30,7310.6875,707.7519379844962,762.5,125.58586710293505,33.33333333333337
30,7315.6875,706.8452380952381,758.3333333333333,128.08133527413696,33.33333333333337
30,7320.6875,693.2170542635658,754.1666666666666,137.55717683201536,37.5
30,7325.6875,688.3522727272726,747.9166666666667,134.54386149709399,39.58333333333326
30,7330.6875,679.074074074074,741.6666666666667,140.97841082102127,54.166666666666515
30,7335.6875,690.5038759689922,750.0,136.82290473364262,50.0
30,7340.6875,705.952380952381,760.4166666666666,130.51889502659162,37.5
30,7345.6875,727.3373983739837,779.1666666666666,126.72096143257306,29.166666666666742
30,7350.6875,728.760162601626,779.1666666666666,126.56247386161863,29.166666666666742
30,7355.6875,737.0833333333334,779.1666666666666,120.22503827847105,31.25
30,7360.6875,742.9166666666667,779.1666666666666,113.62879410168381,31.25
30,7365.6875,718.1547619047619,772.9166666666667,131.60342925603175,35.41666666666663
30,7370.6875,702.1317829457365,762.5,136.7112178553251,41.66666666666674
30,7375.6875,686.3636363636364,745.8333333333334,130.59309782643967,45.83333333333326
30,7380.6875,691.1931818181819,741.6666666666667,124.10277448390035,37.499999999999886
30,7385.6875,688.2575757575759,743.75,129.83626368480336,47.91666666666663
30,7390.6875,669.9074074074074,729.1666666666666,134.24724925964875,62.5
30,7395.6875,689.5348837209302,737.5,126.26467413353191,50.0
30,7400.6875,703.1007751937983,762.5,121.95054477022698,29.16666666666663
30,7405.6875,694.6969696969696,760.4166666666667,131.28379851633488,31.250000000000114
30,7410.6875,697.7182539682539,764.5833333333333,126.76999683556839,31.25
30,7415.6875,687.0265151515151,733.3333333333333,119.25159570859533,60.416666666666686
30,7420.6875,696.8023255813953,750.0,114.84489342033216,41.66666666666663
30,7425.6875,677.8703703703703,729.1666666666666,124.41092960492956,66.66666666666663
30,7430.6875,661.3888888888889,716.6666666666666,127.1140673218787,79.16666666666663
30,7435.6875,650.090579710145,710.4166666666667,126.81852839334636,85.41666666666663
30,7440.6875,674.6296296296296,712.5,158.23567119169425,87.5
30,7445.6875,697.6744186046511,716.6666666666666,183.94851316070006,91.66666666666663
30,7450.6875,699.3217054263566,716.6666666666666,178.31082559101174,91.66666666666663
30,7455.6875,700.0,708.3333333333334,176.1239554872561,81.25000000000006
30,7460.6875,712.202380952381,716.6666666666666,170.87272215238048,83.33333333333331
30,7465.6875,737.5,750.0,159.31984339686005,54.16666666666674
30,7470.6875,728.2520325203253,762.5,130.37909534396235,37.5
30,7475.6875,728.0487804878048,762.5,89.68029825055748,29.166666666666742
30,7480.6875,727.1341463414634,766.6666666666667,96.55580006970203,29.166666666666515
30,7485.6875,728.1746031746031,764.5833333333334,91.68426255642893,27.083333333333258
30,7490.6875,726.5243902439024,762.5,101.25409841482693,33.33333333333326
30,7495.6875,714.2857142857143,735.4166666666666,116.02663747583524,62.5
30,7500.6875,690.340909090909,714.5833333333333,122.00141352670265,52.083333333333485
30,7505.6875,670.6439393939394,687.5,129.87258509919505,56.25000000000006
30,7510.6875,672.1296296296297,700.0,123.30230408650733,45.83333333333337
30,7515.6875,665.3703703703704,675.0,131.5962311068458,62.5
30,7520.6875,668.3333333333334,700.0,129.14039322232284,50.0
30,7525.6875,680.8712121212121,716.6666666666667,123.62067859076322,50.000000000000114
30,7530.6875,701.686507936508,739.5833333333334,118.19935276936225,52.083333333333314
30,7535.6875,723.4126984126983,747.9166666666667,103.30313772098928,41.66666666666663
30,7540.6875,730.589430894309,758.3333333333333,109.97004704287649,41.66666666666674
30,7545.6875,752.9166666666667,779.1666666666666,80.59165121161276,25.000000000000114
30,7550.6875,755.5208333333333,777.0833333333333,69.34643190187487,27.08333333333337
30,7555.6875,741.4583333333333,764.5833333333334,85.09855816134373,27.083333333333258
30,7560.6875,729.5634920634922,750.0,92.43400892494196,29.16666666666663
30,7565.6875,736.7886178861789,745.8333333333334,113.45238247578098,33.33333333333326
30,7570.6875,735.1626016260163,745.8333333333334,125.04530005720191,33.33333333333326
30,7575.6875,741.3541666666667,739.5833333333334,152.07019759452788,35.41666666666663
30,7580.6875,718.3531746031746,722.9166666666666,164.44674924290706,37.5
30,7585.6875,712.9960317460318,716.6666666666666,170.8078068896091,47.916666666666686
30,7590.6875,713.4920634920635,716.6666666666666,172.4082409906551,58.333333333333314
30,7595.6875,693.8953488372093,716.6666666666666,164.64384771866887,75.0
30,7600.6875,683.8068181818182,720.8333333333333,159.40380663585907,77.08333333333337
30,7605.6875,675.284090909091,733.3333333333333,136.88757708098518,66.66666666666669
30,7610.6875,680.3977272727273,737.5,134.1291040677678,62.5
30,7615.6875,683.1439393939391,737.5,131.8104483851721,68.75000000000006
30,7620.6875,692.3449612403101,741.6666666666667,129.54670867797992,66.66666666666663
30,7625.6875,696.8992248062015,741.6666666666667,124.24405354243159,41.66666666666663
30,7630.6875,712.7976190476192,745.8333333333334,129.5296919833592,37.5
30,7635.6875,718.9484126984128,752.0833333333333,123.68276957864401,31.250000000000114
30,7640.6875,724.2886178861788,754.1666666666666,115.66122720393287,37.5
30,7645.6875,746.7479674796748,754.1666666666666,113.71073877968227,37.5
30,7650.6875,733.5365853658536,750.0,123.07176379948184,37.5
30,7655.6875,746.2499999999999,754.1666666666666,118.4043364686737,39.583333333333314
30,7660.6875,752.4572649572648,762.5,96.36920140510239,33.33333333333337
30,7665.6875,740.9552845528453,758.3333333333333,103.00140927022852,41.66666666666674
