window_s,t_s_center,RR_ms_mean,RR_ms_median,RR_ms_sd,RR_ms_mad
30,15.204166666666667,767.2008547008547,775.0,48.310069711267985,8.333333333333258
30,20.204166666666666,771.2606837606837,770.8333333333334,14.042114750089128,8.333333333333258
30,25.204166666666666,769.9786324786324,770.8333333333334,13.692379506871834,8.333333333333258
30,30.204166666666662,770.405982905983,770.8333333333334,13.712897569590673,8.333333333333258
30,35.20416666666666,770.940170940171,770.8333333333334,11.52986759480073,8.333333333333258
30,40.20416666666666,767.7350427350428,770.8333333333334,13.508916156172546,8.333333333333371
30,45.20416666666666,762.7136752136752,762.5,12.534627401345785,8.333333333333371
30,50.20416666666665,765.9188034188033,770.8333333333334,12.926630101537548,8.333333333333258
30,55.20416666666665,765.5982905982906,766.6666666666667,13.131627702758593,8.333333333333258
30,60.20416666666665,764.9572649572649,766.6666666666667,13.54269391238533,8.333333333333258
30,65.20416666666665,764.3162393162393,766.6666666666667,13.477661552497786,8.333333333333258
30,70.20416666666665,765.0,766.6666666666667,12.89614443585918,8.333333333333258
30,75.20416666666665,760.7905982905982,766.6666666666667,17.03855783631352,8.333333333333485
30,80.20416666666665,753.75,756.25,17.444458054325374,14.583333333333371
30,85.20416666666664,741.7708333333334,745.8333333333334,108.78230232180717,16.666666666666742
30,90.20416666666664,737.9901960784313,737.5,117.74289273607722,16.66666666666663
30,95.20416666666664,730.7098765432099,733.3333333333333,131.5949788012851,12.500000000000114
30,100.20416666666664,721.6666666666667,729.1666666666666,152.7919982749166,8.333333333333371
30,105.20416666666664,718.1547619047618,731.25,184.51402402270153,6.25
30,110.20416666666664,701.1904761904763,608.3333333333333,270.33837556215974,87.49999999999989
30,130.20416666666662,15165.277777777776,3700.0,22637.526586482538,3145.833333333333
30,135.20416666666662,4592.424242424242,637.5,12190.933963255837,154.16666666666663
30,140.20416666666662,3066.898148148148,622.9166666666666,9555.223423534193,74.99999999999994
30,145.20416666666662,2324.519230769231,639.5833333333334,7961.029065855314,97.91666666666669
30,150.20416666666662,2049.21875,610.4166666666666,7180.018697801842,81.24999999999994
30,155.20416666666662,1806.0897435897432,612.5,6506.873112562704,87.5
30,160.20416666666662,706.3492063492064,629.1666666666667,318.6066459819277,100.00000000000006
30,165.20416666666662,712.0934959349593,650.0,317.2429034509249,104.16666666666674
30,170.20416666666662,716.4682539682539,654.1666666666667,322.0051091140046,108.33333333333337
30,175.20416666666662,731.4583333333333,672.9166666666667,329.4322335624908,108.33333333333343
30,180.2041666666666,724.6951219512194,700.0,167.9983006793977,79.16666666666663
30,185.2041666666666,718.2539682539683,700.0,154.6532980542123,45.833333333333314
30,190.2041666666666,707.2674418604652,704.1666666666667,137.78257707111706,37.5
30,195.2041666666666,727.3809523809524,708.3333333333334,142.486695455143,33.33333333333337
30,200.2041666666666,727.1341463414634,704.1666666666667,127.79215557732904,33.333333333333485
30,205.2041666666666,731.9444444444445,708.3333333333334,148.53241717592445,41.666666666666686
30,210.2041666666666,711.7063492063493,695.8333333333333,134.90636524708017,39.583333333333314
30,215.2041666666666,740.7291666666667,700.0,152.19631238489734,43.75000000000006
30,220.2041666666666,752.2435897435896,695.8333333333333,160.9230903355665,50.000000000000114
30,225.2041666666666,728.2520325203253,691.6666666666666,158.537456676259,54.16666666666663
30,230.2041666666666,723.015873015873,697.9166666666666,157.21750080805373,58.333333333333314
30,235.2041666666666,724.6951219512194,720.8333333333334,131.26121064524054,58.33333333333326
30,240.2041666666666,725.9146341463415,741.6666666666667,134.55660272184107,49.999999999999886
30,245.2041666666666,702.0348837209302,741.6666666666667,115.15593613517584,41.66666666666663
30,250.2041666666666,706.298449612403,733.3333333333333,130.68226319161673,45.83333333333337
30,255.2041666666666,719.8412698412698,731.25,133.52948454071336,50.0
30,260.2041666666666,733.0208333333333,714.5833333333334,131.12618804102763,52.08333333333337
30,265.2041666666666,729.8780487804879,691.6666666666666,144.6046527240078,49.999999999999886
30,270.2041666666666,727.3809523809524,687.5,160.2424031223335,60.416666666666686
30,275.2041666666666,733.739837398374,683.3333333333334,162.72635110985698,29.166666666666742
30,280.2041666666666,733.3333333333333,679.1666666666667,160.52215146549432,25.000000000000114
30,285.2041666666666,747.3958333333333,687.5,170.44250556416802,33.33333333333337
30,290.2041666666666,737.1951219512196,679.1666666666667,175.57789068624777,29.166666666666742
30,295.2041666666666,751.5625,689.5833333333333,180.2792613986862,39.58333333333326
30,300.20416666666654,771.9017094017095,695.8333333333333,167.65528595687564,41.66666666666663
30,305.20416666666654,763.7820512820512,700.0,166.8123098459743,45.83333333333337
30,310.20416666666654,735.4674796747968,695.8333333333333,160.21394645352004,45.83333333333326
30,315.20416666666654,731.5040650406504,704.1666666666667,152.92021107520273,50.000000000000114
30,320.20416666666654,744.7916666666667,720.8333333333334,140.6947239305026,39.58333333333337
30,325.20416666666654,726.3211382113822,720.8333333333334,130.8175382729059,37.499999999999886
30,330.20416666666654,707.4404761904761,714.5833333333333,122.20290460351035,39.58333333333337
30,335.20416666666654,717.1626984126984,704.1666666666667,126.54265692567573,35.4166666666668
30,340.20416666666654,728.9634146341464,704.1666666666667,124.1007627796591,33.333333333333485
30,345.20416666666654,743.4375,704.1666666666667,145.34529908153104,31.250000000000114
30,350.20416666666654,740.7520325203252,704.1666666666667,146.50592575212718,29.166666666666742
30,355.20416666666654,733.2317073170731,687.5,148.29027876117755,25.0
30,360.20416666666654,744.5833333333333,691.6666666666666,158.4687904600068,25.0
30,365.20416666666654,724.4918699186992,695.8333333333333,159.59256697054948,33.33333333333337
30,370.20416666666654,729.5731707317074,691.6666666666666,166.13405751907302,37.5
30,375.20416666666654,703.9728682170543,691.6666666666666,144.57493768329184,37.5
30,380.20416666666654,697.4806201550387,683.3333333333334,146.602674573825,45.83333333333326
30,385.20416666666654,719.5436507936507,697.9166666666666,157.62702994239422,47.916666666666686
30,390.20416666666654,719.6428571428571,691.6666666666666,148.96971633204362,35.416666666666686
30,395.20416666666654,739.1260162601625,691.6666666666666,160.7001770918258,37.5
30,400.20416666666654,734.0447154471544,704.1666666666667,146.93010916187254,41.66666666666674
30,405.20416666666654,726.6260162601626,712.5,142.68895260363345,33.33333333333337
30,410.20416666666654,735.5691056910568,716.6666666666666,132.80526143991682,54.16666666666663
30,415.20416666666654,722.7182539682539,729.1666666666666,108.04057684051621,39.58333333333337
30,420.20416666666654,720.2380952380953,739.5833333333334,106.156089649747,33.333333333333314
30,425.20416666666654,714.8809523809524,743.75,79.62343016379769,22.916666666666686
30,430.20416666666654,726.219512195122,745.8333333333334,92.12595121643996,16.66666666666663
30,435.20416666666654,753.6458333333334,754.1666666666666,109.90877587132324,18.750000000000057
30,440.20416666666654,751.25,747.9166666666667,121.6802767238378,27.083333333333314
30,445.20416666666654,753.7393162393162,741.6666666666667,138.03323925309246,83.33333333333337
30,450.20416666666654,778.0701754385966,727.0833333333333,156.71794556409375,68.74999999999989
30,455.20416666666654,781.359649122807,685.4166666666667,158.21396888209054,43.74999999999994
30,460.20416666666654,765.0641025641027,666.6666666666666,161.06716306138935,20.833333333333258
30,465.2041666666665,728.5569105691058,658.3333333333334,146.94386971521973,20.83333333333337
30,470.2041666666665,719.1468253968254,656.25,140.7101241120072,18.75
30,475.2041666666665,708.7209302325581,654.1666666666666,132.80156219663004,20.83333333333337
30,480.2041666666665,702.906976744186,654.1666666666666,121.34380025456193,16.66666666666663
30,485.2041666666665,715.575396825397,652.0833333333333,133.6824048597267,18.75
30,490.2041666666665,723.7103174603175,654.1666666666666,140.2834435174016,20.83333333333337
30,495.2041666666665,736.6869918699186,654.1666666666666,142.84199796318245,16.66666666666663
30,500.2041666666665,749.8958333333333,658.3333333333334,152.1231726884613,16.66666666666663
30,505.2041666666665,759.4017094017096,666.6666666666666,151.96302604104312,20.833333333333258
30,510.2041666666665,758.6538461538462,658.3333333333334,152.8732628042976,16.66666666666663
30,515.2041666666665,742.0833333333333,658.3333333333334,144.74656110445923,8.333333333333371
30,520.2041666666665,754.7916666666667,666.6666666666666,149.7878069412264,16.66666666666663
30,525.2041666666665,775.3205128205127,683.3333333333334,159.41569287683885,25.0
30,530.2041666666665,765.0641025641024,687.5,163.3374042429697,29.16666666666663
30,535.2041666666665,761.5625,687.5,167.6426750753228,35.416666666666686
30,540.2041666666664,737.4999999999999,683.3333333333334,154.62768905413486,25.0
30,545.2041666666664,746.3414634146342,687.5,171.2930681902426,45.83333333333326
30,550.2041666666664,720.3252032520326,683.3333333333334,166.73226605357593,50.000000000000114
30,555.2041666666664,711.9047619047619,672.9166666666666,163.76946146316934,45.833333333333314
30,560.2041666666664,714.939024390244,670.8333333333333,166.42163135683063,66.66666666666663
30,565.2041666666664,726.4583333333333,685.4166666666667,171.06782426445804,50.0
30,570.2041666666664,765.5982905982905,695.8333333333333,194.319733800686,116.66666666666652
30,575.2041666666664,766.7735042735042,700.0,180.27119550450922,54.16666666666663
30,580.2041666666664,757.3958333333334,700.0,176.44521149710016,52.083333333333314
30,585.2041666666664,746.875,697.9166666666666,174.98410082436214,50.0
30,590.2041666666664,738.9227642276423,700.0,159.37325640685006,29.166666666666742
30,595.2041666666664,720.4457364341087,683.3333333333334,150.07662822656567,37.5
30,600.2041666666664,689.0503875968992,670.8333333333333,119.21474518457403,37.5
30,605.2041666666664,685.1744186046511,650.0,121.10431548661664,20.833333333333258
30,610.2041666666664,716.9791666666667,652.0833333333333,146.09526995225292,18.75
30,615.2041666666664,722.2222222222222,650.0,141.76492711593085,16.666666666666742
30,620.2041666666664,733.8141025641024,647.9166666666667,157.54332262674131,14.583333333333485
30,625.2041666666664,753.7037037037038,647.9166666666667,170.1948187382476,20.833333333333314
30,630.2041666666664,786.4583333333334,708.3333333333333,184.39880645826406,131.24999999999994
30,635.2041666666664,853.3333333333334,958.3333333333334,215.52987031963806,79.16666666666663
30,680.2041666666664,70745.83333333334,70745.83333333334,0.0,0.0
30,685.2041666666664,25159.72222222223,3654.166666666667,39499.71899806283,2575.0000000000005
30,690.2041666666664,19207.29166666667,2502.0833333333335,34378.446523349434,1287.5000000000002
30,695.2041666666664,19207.29166666667,2502.0833333333335,34378.446523349434,1287.5000000000002
30,700.2041666666664,19207.29166666667,2502.0833333333335,34378.446523349434,1287.5000000000002
30,705.2041666666664,19207.29166666667,2502.0833333333335,34378.446523349434,1287.5000000000002
30,710.2041666666664,4367.261904761905,1079.1666666666665,8230.187499471383,583.3333333333331
30,715.2041666666664,2352.24358974359,579.1666666666667,6166.721240229758,75.00000000000011
30,720.2041666666664,1795.6140350877195,633.3333333333333,5102.745167455416,112.50000000000011
30,725.2041666666664,1499.0384615384614,641.6666666666667,4358.833194358247,116.66666666666669
30,730.2041666666664,1305.514705882353,641.6666666666667,3810.7381562148466,116.66666666666669
30,735.2041666666664,1201.6260162601625,683.3333333333334,3469.30061671507,104.16666666666663
30,740.2041666666664,678.5037878787879,725.0,112.22850955711444,79.16666666666663
30,745.2041666666664,707.1428571428571,743.75,104.28767651779596,52.08333333333326
30,750.2041666666664,705.7170542635657,745.8333333333334,101.63601889658891,49.999999999999886
30,755.2041666666664,695.9302325581396,737.5,100.38569951643981,62.5
30,760.2041666666664,684.1856060606061,716.6666666666666,103.4747545382734,68.75000000000006
30,765.2041666666664,694.9612403100775,725.0,102.2140729835443,70.83333333333337
30,770.2041666666664,684.469696969697,689.5833333333333,108.85148757455204,104.16666666666669
30,775.2041666666664,685.3219696969697,689.5833333333333,109.3367684616302,104.16666666666669
30,780.2041666666664,690.3100775193798,729.1666666666666,112.75955115868044,70.83333333333326
30,785.2041666666664,699.1279069767442,750.0,119.32403770885637,54.16666666666674
30,790.2041666666664,721.9512195121952,770.8333333333334,115.3723756406862,29.16666666666663
30,795.2041666666664,699.1279069767442,762.5,124.58117048188561,33.33333333333326
30,800.2041666666664,712.9960317460318,760.4166666666666,111.78143894345774,29.166666666666686
30,805.2041666666664,694.3181818181818,741.6666666666667,117.08497443293484,43.74999999999994
30,810.2041666666664,683.1439393939394,733.3333333333333,117.66582993152379,54.16666666666674
30,815.2041666666664,679.537037037037,729.1666666666666,109.66842754923742,54.16666666666674
30,820.2041666666664,670.8333333333334,729.1666666666666,112.46492157939107,45.83333333333337
30,825.2041666666664,684.8484848484849,733.3333333333333,111.3912884607129,41.66666666666674
30,830.2041666666664,675.3787878787879,729.1666666666666,117.2666541267074,54.16666666666674
30,835.2041666666664,685.3682170542635,750.0,116.05698152417212,37.5
30,840.2041666666664,681.6287878787879,739.5833333333333,115.40821192348119,47.91666666666674
30,845.2041666666664,691.375968992248,750.0,115.83602881997503,37.5
30,850.2041666666664,697.577519379845,758.3333333333333,109.4238177454813,33.33333333333337
30,855.2041666666664,704.9418604651162,758.3333333333333,107.81797370873426,45.833333333333485
30,860.2041666666664,713.9880952380953,770.8333333333334,106.4279811256095,41.66666666666663
30,865.2041666666663,729.979674796748,770.8333333333334,109.48989803174862,41.66666666666663
30,870.2041666666663,756.0416666666667,791.6666666666666,98.14859330383378,27.083333333333314
30,875.2041666666663,758.5416666666666,795.8333333333333,103.27589215438857,25.0
30,880.2041666666663,759.2708333333333,797.9166666666666,118.66979785254829,31.250000000000057
30,885.2041666666663,767.8418803418803,804.1666666666667,117.83542361925451,29.16666666666663
30,890.2041666666663,768.9102564102565,804.1666666666667,116.61906200545407,29.16666666666663
30,895.2041666666663,770.2991452991453,816.6666666666666,115.34408338683731,20.83333333333337
30,900.2041666666663,753.5416666666666,814.5833333333333,126.52400732746109,18.750000000000114
30,905.2041666666663,751.923076923077,808.3333333333334,127.77921408764612,20.83333333333337
30,910.2041666666663,752.2435897435896,808.3333333333334,114.06019395588525,20.83333333333337
30,915.2041666666663,740.9375,804.1666666666667,118.59249751364636,25.0
30,920.2041666666663,739.0243902439024,795.8333333333333,120.07215747772258,33.33333333333326
30,925.2041666666663,724.2063492063493,783.3333333333334,123.68973887683569,41.66666666666663
30,930.2041666666663,724.0853658536586,783.3333333333334,122.45503779137798,37.499999999999886
30,935.2041666666663,727.5793650793652,781.25,120.56478561874673,39.58333333333326
30,940.2041666666663,723.015873015873,781.25,122.89293933603408,39.58333333333326
30,945.2041666666663,729.0650406504064,783.3333333333334,117.66495441417538,37.499999999999886
30,950.2041666666663,709.2261904761905,756.25,124.5300641829296,54.166666666666686
30,955.2041666666663,686.9186046511626,737.5,124.83978288853852,75.0
30,960.2041666666663,689.4886363636364,733.3333333333333,135.28575555459778,77.08333333333337
30,965.2041666666663,693.3139534883721,737.5,133.17866629142148,75.0
30,970.2041666666663,693.4108527131782,737.5,134.84152146560913,75.0
30,975.2041666666663,674.9074074074074,704.1666666666667,133.80152436979654,95.83333333333326
30,980.2041666666663,689.1098484848485,720.8333333333333,132.44988298529708,79.16666666666674
30,985.2041666666663,715.5753968253968,762.5,124.82731813517313,41.666666666666686
30,990.2041666666663,716.869918699187,754.1666666666666,107.7264701828143,45.83333333333337
30,995.2041666666663,710.4166666666666,750.0,120.63254273144398,43.74999999999994
30,1000.2041666666663,716.6666666666666,754.1666666666666,113.24841390515154,35.416666666666686
30,1005.2041666666663,718.3943089430894,758.3333333333333,114.03267536165019,33.33333333333337
30,1010.2041666666663,708.1349206349206,750.0,113.4499653220104,37.5
30,1015.2041666666663,701.6472868217054,737.5,127.68006379052814,58.33333333333326
30,1020.2041666666663,695.4545454545455,720.8333333333333,126.39345465400945,64.58333333333343
30,1025.2041666666662,666.851851851852,658.3333333333334,119.24887089560447,112.5
30,1030.2041666666662,669.8148148148148,675.0,124.45003876765358,83.33333333333337
30,1035.2041666666662,673.9814814814814,683.3333333333334,118.03564894555271,66.66666666666663
30,1040.2041666666662,675.0925925925926,687.5,119.48202368677609,58.33333333333337
30,1045.2041666666662,665.6481481481482,687.5,104.73012589738737,58.33333333333337
30,1050.2041666666662,657.6851851851853,683.3333333333334,111.03122127926646,62.5
30,1055.2041666666662,685.0378787878788,725.0,103.48153827803327,31.249999999999943
30,1060.2041666666662,674.9053030303029,729.1666666666666,94.53958468281454,27.083333333333314
30,1065.2041666666662,659.2391304347827,725.0,100.00738029663087,31.249999999999943
30,1070.2041666666662,675.8522727272727,725.0,114.8937112223098,29.16666666666663
30,1075.2041666666662,666.6666666666666,725.0,118.73172373979175,29.16666666666663
30,1080.2041666666662,692.829457364341,733.3333333333333,126.51961748660877,12.500000000000114
30,1085.2041666666662,687.121212121212,729.1666666666666,126.90988666318918,16.666666666666742
30,1090.2041666666662,678.5037878787879,725.0,129.6049178844702,25.0
30,1095.2041666666662,709.325396825397,731.25,134.1022339469693,16.666666666666686
30,1100.2041666666662,687.8787878787879,731.25,123.16422705641267,20.833333333333314
30,1105.2041666666662,694.5736434108527,733.3333333333333,122.03675124268844,16.666666666666742
30,1110.2041666666662,690.6250000000001,729.1666666666666,130.32930427068038,27.083333333333314
30,1115.2041666666662,702.5793650793651,722.9166666666667,150.397374449561,68.75000000000011
30,1120.2041666666662,735.670731707317,733.3333333333333,165.5982650867122,58.33333333333326
30,1125.2041666666662,710.6150793650793,714.5833333333334,165.85984176780153,66.66666666666674
30,1130.2041666666662,709.4512195121952,708.3333333333334,168.780924096159,75.00000000000011
30,1135.2041666666662,741.260162601626,720.8333333333334,176.90138907492945,50.000000000000114
30,1140.2041666666662,726.5243902439025,720.8333333333334,164.4560586405294,41.66666666666663
30,1145.2041666666662,706.9767441860465,716.6666666666666,147.46737860682427,37.5
30,1150.2041666666662,697.0930232558138,716.6666666666666,144.47935766550168,29.166666666666742
30,1155.2041666666662,709.4246031746031,714.5833333333333,135.57584304483734,22.916666666666742
30,1160.2041666666662,722.5198412698412,716.6666666666666,125.85769269621267,20.83333333333337
30,1165.2041666666662,704.563492063492,710.4166666666667,97.25574611444671,18.749999999999886
30,1170.2041666666662,719.5436507936507,708.3333333333334,129.54307891488344,16.666666666666742
30,1175.2041666666662,739.1666666666666,712.5,148.81356526868515,20.833333333333258
30,1180.2041666666662,726.8849206349207,708.3333333333334,137.26483456339838,16.666666666666742
30,1185.2041666666662,731.910569105691,712.5,151.54760023009717,25.0
30,1190.2041666666662,726.1904761904761,714.5833333333333,157.055945064122,52.08333333333343
30,1195.2041666666662,719.6428571428571,720.8333333333333,164.89219427748256,56.25000000000006
30,1200.2041666666662,703.7790697674419,720.8333333333334,140.24677665108325,54.16666666666663
30,1205.2041666666662,694.8863636363635,720.8333333333334,132.1741753379329,54.16666666666663
30,1210.2041666666662,684.3023255813953,733.3333333333333,130.5286526949431,41.66666666666674
30,1215.2041666666662,661.5942028985506,697.9166666666667,121.25855271947673,72.91666666666669
30,1220.2041666666662,646.8297101449276,637.5,121.17348286462573,104.16666666666669
30,1225.2041666666662,661.7592592592592,662.5,124.60888587429378,95.83333333333326
30,1230.2041666666662,671.3068181818181,677.0833333333333,128.6238780078371,97.91666666666669
30,1235.2041666666662,681.7829457364343,741.6666666666667,118.40060425720186,62.5
30,1240.2041666666662,696.3178294573644,770.8333333333334,113.46663387350475,33.33333333333337
30,1245.2041666666662,720.2235772357723,775.0,103.05894759901638,16.66666666666663
30,1250.2041666666662,745.1041666666667,779.1666666666666,85.0877683910683,12.5
30,1255.2041666666662,734.6544715447155,775.0,90.70728555698561,16.66666666666663
30,1260.2041666666662,718.2539682539684,775.0,99.66046856557014,14.583333333333314
30,1265.2041666666662,695.3598484848484,766.6666666666667,107.2855408016047,24.999999999999886
30,1270.2041666666662,682.9545454545455,739.5833333333333,111.29602008780674,54.166666666666686
30,1275.2041666666662,680.1851851851852,720.8333333333334,110.46545361423985,74.99999999999989
30,1280.2041666666662,677.4074074074074,712.5,109.83260653847196,79.16666666666674
30,1285.2041666666662,676.1111111111112,712.5,108.32022065164102,79.16666666666674
30,1290.2041666666662,679.0719696969697,712.5,113.86974287894432,72.91666666666669
30,1295.2041666666662,688.7596899224806,720.8333333333334,113.14313114267824,66.66666666666663
30,1300.2041666666662,712.2093023255813,754.1666666666666,107.12233458756897,41.66666666666663
30,1305.2041666666662,707.6388888888888,756.25,117.04322457215332,39.58333333333326
30,1310.2041666666662,706.7460317460317,756.25,120.26940309119458,39.58333333333326
30,1315.2041666666662,716.6666666666666,770.8333333333334,119.64937200930986,20.833333333333258
30,1320.2041666666662,723.015873015873,775.0,108.98505534855525,18.75
30,1325.2041666666662,722.4206349206348,779.1666666666666,112.23414982821816,16.66666666666663
30,1330.2041666666662,719.918699186992,775.0,112.5983836594026,16.666666666666742
30,1335.2041666666662,726.8292682926829,775.0,99.93508648537863,16.666666666666742
30,1340.2041666666662,722.4206349206349,775.0,102.9664693895893,16.66666666666663
30,1345.2041666666662,716.1706349206348,760.4166666666666,100.37700942850043,29.166666666666686
30,1350.2041666666662,721.9512195121952,762.5,116.57371442271598,29.16666666666663
30,1355.2041666666662,704.4642857142857,747.9166666666667,122.53115048721793,43.749999999999886
30,1360.2041666666662,717.2619047619047,745.8333333333334,148.72587660671277,41.66666666666663
30,1365.2041666666662,705.3294573643411,733.3333333333333,155.53161729798916,50.000000000000114
30,1370.2041666666662,715.7520325203253,733.3333333333333,150.15186812927115,37.5
30,1375.2041666666662,710.4651162790699,725.0,165.11022275714708,54.16666666666663
30,1380.2041666666662,695.8333333333334,725.0,157.0330905713555,50.0
30,1385.2041666666662,691.5719696969697,725.0,159.85470792454777,45.83333333333337
30,1390.2041666666662,664.8148148148148,720.8333333333334,133.3734419892445,50.0
30,1395.2041666666662,670.3598484848485,722.9166666666667,128.23090618594452,45.833333333333314
30,1400.2041666666662,659.3297101449276,710.4166666666667,130.39938881706743,60.41666666666663
30,1405.2041666666662,666.3888888888889,725.0,113.86101531288402,41.66666666666674
30,1410.2041666666662,666.1111111111112,725.0,114.94124542125815,41.66666666666674
30,1415.2041666666662,688.468992248062,737.5,106.95412194400039,29.166666666666742
30,1420.2041666666662,681.6287878787879,731.25,108.60995609444689,35.41666666666674
30,1425.2041666666662,683.4280303030301,733.3333333333333,111.265799027551,33.333333333333485
30,1430.2041666666662,692.8294573643412,745.8333333333334,111.07759507423769,25.0
30,1435.2041666666662,690.3100775193799,741.6666666666667,109.35764575184206,25.0
30,1440.2041666666662,696.5116279069767,745.8333333333334,106.28376460300177,20.83333333333337
30,1445.2041666666662,708.2364341085272,737.5,115.15994302242754,20.83333333333337
30,1450.2041666666662,703.1007751937984,733.3333333333333,114.88899714964627,25.0
30,1455.2041666666662,705.8139534883721,729.1666666666666,108.10851036021477,25.0
30,1460.2041666666662,701.3565891472869,725.0,107.69700529232763,29.16666666666663
30,1465.2041666666662,688.2575757575759,720.8333333333334,114.8047463576068,31.249999999999943
30,1470.2041666666662,685.7007575757575,720.8333333333334,116.5607136799228,37.499999999999886
30,1475.2041666666662,680.1136363636364,722.9166666666667,118.39413097363247,35.416666666666515
30,1480.2041666666662,690.2131782945736,729.1666666666666,120.93551960264894,33.33333333333337
30,1485.2041666666662,690.2131782945737,737.5,127.07238347612524,29.166666666666742
30,1490.2041666666662,690.1515151515151,729.1666666666666,140.2289417197539,41.66666666666674
30,1495.2041666666662,698.1589147286821,741.6666666666667,141.47776366070516,33.33333333333326
30,1500.2041666666662,714.8809523809524,752.0833333333333,136.65558296178898,29.166666666666742
30,1505.2041666666662,714.5833333333334,752.0833333333333,141.15537216890093,29.166666666666742
30,1510.2041666666662,719.047619047619,747.9166666666667,137.55740011909987,27.083333333333258
30,1515.2041666666662,726.1904761904761,745.8333333333334,130.63285905056335,25.0
30,1520.2041666666662,727.0325203252033,745.8333333333334,114.66709798557567,20.83333333333337
30,1525.2041666666662,727.3373983739838,750.0,110.164999280151,20.83333333333337
30,1530.2041666666662,699.9031007751938,741.6666666666667,126.66055871112134,20.83333333333337
30,1535.2041666666662,700.9920634920634,741.6666666666667,105.08662675368078,29.166666666666686
30,1540.2041666666662,702.9069767441861,741.6666666666667,101.24283436872298,33.33333333333326
30,1545.2041666666662,689.437984496124,737.5,108.31940095548097,37.5
30,1550.2041666666662,683.3333333333334,739.5833333333334,108.16922573148445,37.49999999999994
30,1555.2041666666662,683.3333333333334,737.5,105.75769075315115,37.5
30,1560.2041666666662,699.7093023255813,741.6666666666667,113.38713763116823,33.33333333333326
30,1565.2041666666662,686.5530303030304,737.5,123.44597188689404,35.416666666666686
30,1570.2041666666662,690.5038759689922,737.5,120.43697164101364,33.33333333333337
30,1575.2041666666662,705.0387596899225,741.6666666666667,114.19779344652257,25.0
30,1580.2041666666662,705.059523809524,739.5833333333334,117.62288057370495,31.25
30,1585.2041666666662,711.531007751938,741.6666666666667,131.9710829708336,29.16666666666663
30,1590.2041666666662,707.5396825396825,741.6666666666667,115.65413587804036,29.16666666666663
30,1595.2041666666662,699.515503875969,733.3333333333333,111.22220129445847,33.333333333333485
30,1600.2041666666662,706.8452380952381,733.3333333333333,126.44765186593246,37.5
30,1605.2041666666662,694.5736434108527,729.1666666666666,137.31509598396946,41.66666666666674
30,1610.2041666666662,708.6240310077519,729.1666666666666,147.48608621050371,41.66666666666674
30,1615.2041666666662,702.2286821705427,741.6666666666667,137.01015692110104,37.499999999999886
30,1620.2041666666662,700.0968992248063,741.6666666666667,138.01157949539,37.499999999999886
30,1625.2041666666662,726.4227642276422,745.8333333333334,140.81425461283393,33.33333333333326
30,1630.2041666666662,717.7579365079366,760.4166666666666,132.14363644774096,18.749999999999943
30,1635.2041666666662,703.3914728682171,745.8333333333334,131.38851916314772,33.33333333333326
30,1640.2041666666662,695.8333333333333,745.8333333333334,116.1482244931452,29.16666666666663
30,1645.2041666666662,705.4563492063492,750.0,116.23937466098559,29.16666666666663
30,1650.2041666666662,713.3928571428571,752.0833333333333,116.73755001965547,25.0
30,1655.2041666666662,710.3682170542635,754.1666666666666,127.23651350107576,37.5
30,1660.204166666666,717.4603174603175,756.25,127.01371908873911,39.58333333333326
30,1665.204166666666,728.2520325203252,762.5,121.75122701840752,33.33333333333326
30,1670.204166666666,736.6666666666667,766.6666666666667,113.94568106610375,31.250000000000114
30,1675.204166666666,726.2195121951221,758.3333333333333,119.5958323260309,29.16666666666663
30,1680.204166666666,717.063492063492,752.0833333333333,126.11564977054736,31.249999999999886
30,1685.204166666666,690.0193798449613,733.3333333333333,114.40964301325769,41.66666666666663
30,1690.204166666666,673.8888888888889,720.8333333333334,112.64861115859172,54.16666666666674
30,1695.204166666666,673.1060606060606,725.0,117.49585781312345,54.16666666666663
30,1700.204166666666,672.962962962963,729.1666666666666,115.21561850980571,50.0
30,1705.204166666666,654.3478260869564,700.0,117.66424205920258,70.83333333333337
30,1710.204166666666,659.351851851852,712.5,115.15578612715652,54.16666666666663
30,1715.204166666666,679.1666666666667,733.3333333333333,113.05311916058744,47.91666666666674
30,1720.204166666666,681.5340909090909,735.4166666666666,117.2273271332368,39.58333333333337
30,1725.204166666666,682.6704545454545,735.4166666666666,112.06290043796362,43.75
30,1730.204166666666,679.5454545454545,741.6666666666667,117.37333798531259,41.66666666666663
30,1735.204166666666,701.4534883720929,770.8333333333334,111.02756179562923,20.833333333333258
30,1740.204166666666,704.1666666666667,775.0,111.64060344975003,8.333333333333371
30,1745.204166666666,694.7674418604652,770.8333333333334,116.53582878634002,12.500000000000114
30,1750.204166666666,695.639534883721,770.8333333333334,116.80460060515526,20.833333333333258
30,1755.204166666666,706.1046511627908,762.5,112.86078552388574,20.83333333333337
30,1760.204166666666,700.2906976744185,758.3333333333333,113.0439354409508,25.000000000000114
30,1765.204166666666,696.6085271317829,758.3333333333333,112.1734524924472,20.83333333333337
30,1770.204166666666,693.5077519379846,750.0,108.06706565470085,25.0
30,1775.204166666666,695.8333333333335,752.0833333333333,108.33706016249087,22.916666666666686
30,1780.204166666666,698.1589147286822,750.0,100.74254047961172,16.666666666666742
30,1785.204166666666,683.7209302325582,741.6666666666667,106.256084300928,25.000000000000114
30,1790.204166666666,684.659090909091,741.6666666666667,108.44051319739087,41.66666666666663
30,1795.204166666666,691.6666666666667,741.6666666666667,103.70134162086939,41.66666666666663
30,1800.204166666666,682.2916666666667,731.25,109.8548674058863,56.25
30,1805.204166666666,690.0193798449612,737.5,106.16394560131042,58.33333333333326
30,1810.204166666666,672.5378787878788,714.5833333333333,114.75917860661772,72.91666666666674
30,1815.204166666666,677.6851851851851,725.0,114.94315251848037,70.83333333333326
30,1820.204166666666,680.7765151515151,729.1666666666666,114.71659238060712,64.58333333333331
30,1825.204166666666,664.2210144927536,714.5833333333333,119.4979727827834,72.91666666666652
30,1830.204166666666,677.1296296296297,737.5,121.09305363019782,58.33333333333326
30,1835.204166666666,666.0185185185185,725.0,125.52275650970918,54.16666666666663
30,1840.204166666666,686.4583333333334,747.9166666666667,121.60481131788706,31.25
30,1845.204166666666,680.3977272727273,739.5833333333334,125.77145516882223,47.91666666666663
30,1850.204166666666,666.0185185185185,725.0,132.55262544705346,62.5
30,1855.204166666666,677.5568181818182,735.4166666666666,128.21201324379936,52.08333333333337
30,1860.204166666666,672.4431818181819,729.1666666666666,128.53595673839095,56.25000000000006
30,1865.204166666666,677.4621212121211,731.25,122.39969190460226,56.25
30,1870.204166666666,672.6851851851852,725.0,124.96386963809597,62.5
30,1875.204166666666,686.7248062015505,741.6666666666667,122.22534204380898,45.83333333333326
30,1880.204166666666,705.8531746031747,766.6666666666667,110.5735368399541,27.083333333333258
30,1885.204166666666,701.937984496124,766.6666666666667,116.6430986583608,29.166666666666515
30,1890.204166666666,700.8720930232558,766.6666666666667,115.60800189488921,33.33333333333326
30,1895.204166666666,695.0581395348837,741.6666666666667,113.77967014478114,58.33333333333326
30,1900.204166666666,719.2073170731707,741.6666666666667,133.84951531730516,58.33333333333326
30,1905.204166666666,705.232558139535,725.0,134.20194813408133,70.83333333333326
30,1910.204166666666,694.2234848484849,708.3333333333334,135.1655122021346,70.83333333333331
30,1915.204166666666,691.6666666666667,691.6666666666666,143.5017698027029,75.00000000000011
30,1920.204166666666,694.3798449612403,704.1666666666667,143.35445269649597,66.66666666666663
30,1925.204166666666,706.4922480620154,704.1666666666667,141.217490305225,62.5
30,1930.204166666666,690.909090909091,712.5,121.48571791381679,70.83333333333331
30,1935.204166666666,691.6666666666667,712.5,126.04392133625527,66.66666666666663
30,1940.204166666666,692.5387596899225,708.3333333333334,123.1830854297421,70.83333333333326
30,1945.204166666666,689.5833333333334,706.25,108.11509024654276,62.5
30,1950.204166666666,679.6401515151515,702.0833333333334,115.46381550706428,72.91666666666674
30,1955.204166666666,686.9318181818182,720.8333333333333,125.75865034734512,64.58333333333337
30,1960.204166666666,668.0555555555557,700.0,124.91158489269135,66.66666666666674
30,1965.204166666666,665.0362318840579,695.8333333333333,132.23937289815814,77.08333333333343
30,1970.204166666666,672.9629629629629,720.8333333333334,138.04592674183192,83.33333333333337
30,1975.204166666666,669.6969696969697,722.9166666666667,144.3973141429195,79.16666666666663
30,1980.204166666666,678.4259259259259,729.1666666666666,136.51012170429584,49.999999999999886
30,1985.204166666666,684.3750000000001,731.25,143.85318170828512,66.66666666666663
30,1990.204166666666,700.7936507936507,739.5833333333334,142.2311747085545,50.0
30,1995.204166666666,725.6097560975611,754.1666666666666,120.89998512174856,29.16666666666663
30,2000.204166666666,724.5934959349594,754.1666666666666,117.43350984458118,25.0
30,2005.204166666666,743.1910569105692,762.5,98.17234392875686,16.66666666666663
30,2010.204166666666,760.1495726495726,762.5,96.58739788967873,20.833333333333258
30,2015.204166666666,722.4593495934959,750.0,107.82282780154651,20.83333333333337
30,2020.204166666666,727.4801587301588,750.0,98.541444394675,20.83333333333337
30,2025.204166666666,718.0555555555557,745.8333333333334,106.78881260150008,27.083333333333314
30,2030.204166666666,716.468253968254,743.75,110.28169915335332,27.08333333333337
30,2035.204166666666,709.5238095238095,737.5,118.4363662943706,39.583333333333314
30,2040.204166666666,700.0968992248062,754.1666666666666,109.9674087875461,29.166666666666742
30,2045.204166666666,728.150406504065,754.1666666666666,106.42869159988746,29.16666666666663
30,2050.204166666666,721.849593495935,754.1666666666666,116.94824831759064,29.166666666666742
30,2055.204166666666,729.1666666666666,762.5,121.65310997531739,29.166666666666742
30,2060.204166666666,738.5416666666666,770.8333333333334,113.44274978434046,33.33333333333337
30,2065.204166666666,733.8414634146342,762.5,132.75981838151847,33.33333333333326
30,2070.204166666666,726.829268292683,737.5,154.20058405191344,50.0
30,2075.204166666666,730.9959349593496,737.5,162.3050346989208,50.0
30,2080.204166666666,733.6382113821138,733.3333333333333,167.6103239595699,45.83333333333326
30,2085.204166666666,721.5277777777778,718.75,176.33760163839375,39.58333333333326
30,2090.204166666666,710.0775193798451,704.1666666666667,179.49681781101864,41.66666666666663
30,2095.204166666666,711.904761904762,702.0833333333334,173.35065635316184,41.666666666666686
30,2100.204166666666,696.2209302325581,700.0,167.96324522722884,50.0
30,2105.204166666666,690.3409090909091,704.1666666666667,156.63040960359845,43.75
30,2110.204166666666,687.689393939394,702.0833333333334,142.90655134455946,35.41666666666674
30,2115.204166666666,693.5077519379846,708.3333333333334,131.43584828200014,45.83333333333326
30,2120.204166666666,693.3139534883721,716.6666666666666,131.63017984151242,45.83333333333337
30,2125.204166666666,697.2868217054265,725.0,121.01410848255357,37.5
30,2130.204166666666,709.7868217054264,741.6666666666667,109.22210106878623,25.000000000000114
30,2135.204166666666,688.3720930232558,733.3333333333333,111.12682728459562,29.166666666666742
30,2140.204166666666,695.6395348837209,750.0,113.47663052325261,12.5
30,2145.204166666666,683.1439393939394,745.8333333333334,108.1503916932193,12.499999999999886
30,2150.204166666666,684.7537878787879,745.8333333333334,104.3736052291116,10.416666666666629
30,2155.204166666666,683.1439393939393,745.8333333333334,105.63864832182581,12.5
30,2160.204166666666,693.701550387597,745.8333333333334,105.00209470157708,25.0
30,2165.204166666666,705.7170542635658,750.0,97.46719387630549,20.83333333333337
30,2170.204166666666,684.469696969697,741.6666666666667,104.95386135754856,33.33333333333326
30,2175.204166666666,686.9186046511628,745.8333333333334,109.56104319194954,33.33333333333326
30,2180.204166666666,686.2689393939394,731.25,130.0826472324178,49.99999999999994
30,2185.204166666666,681.9128787878789,722.9166666666667,138.50770969239593,64.58333333333326
30,2190.204166666666,670.0925925925927,704.1666666666667,138.5898295437807,66.66666666666663
30,2195.204166666666,675.6628787878788,706.25,135.8499870355767,75.0
30,2200.204166666666,685.7954545454545,729.1666666666666,142.07737484896964,54.16666666666674
30,2205.204166666666,689.6780303030303,729.1666666666666,139.48238753036952,49.999999999999886
30,2210.204166666666,697.7713178294575,737.5,133.92832533507598,45.83333333333337
30,2215.204166666666,700.6782945736434,737.5,127.89934552780268,45.83333333333337
30,2220.204166666666,712.5992063492065,739.5833333333334,117.48943364543446,33.333333333333314
30,2225.204166666666,715.2777777777778,741.6666666666667,140.41371636507156,39.58333333333326
30,2230.204166666666,710.1190476190476,735.4166666666666,132.70987002193496,33.33333333333343
30,2235.204166666666,717.1626984126984,731.25,125.59547318115365,33.33333333333337
30,2240.204166666666,710.9126984126984,735.4166666666666,110.22408954542654,27.083333333333314
30,2245.204166666666,699.9031007751938,729.1666666666666,112.9894130017221,33.33333333333337
30,2250.204166666666,704.0674603174602,733.3333333333333,135.52407589947344,43.75000000000006
30,2255.204166666666,702.3255813953489,737.5,109.70326711991562,25.0
30,2260.204166666666,707.4404761904763,737.5,108.25722668398174,22.916666666666686
30,2265.204166666666,707.7380952380952,745.8333333333334,116.90803801905565,29.166666666666742
30,2270.204166666666,709.8214285714286,745.8333333333334,122.00622731039778,29.166666666666742
30,2275.204166666666,742.6041666666667,756.25,127.19751945911804,22.916666666666686
30,2280.204166666666,731.5040650406504,758.3333333333333,115.51157642685813,29.166666666666742
30,2285.204166666666,725.7113821138211,766.6666666666667,126.0680152866689,24.999999999999886
30,2290.204166666666,727.3373983739837,766.6666666666667,128.99871062988746,24.999999999999886
30,2295.204166666666,718.6507936507936,764.5833333333334,128.69286987029358,27.083333333333314
30,2300.204166666666,728.760162601626,766.6666666666667,123.87621537009171,24.999999999999886
30,2305.204166666666,708.8293650793651,758.3333333333333,111.8571757271149,27.083333333333428
30,2310.204166666666,706.6860465116279,758.3333333333333,113.89181496029539,25.000000000000114
30,2315.204166666666,708.8178294573643,758.3333333333333,108.53236182554281,20.83333333333337
30,2320.204166666666,710.6589147286821,766.6666666666667,109.86140832433281,16.666666666666742
30,2325.204166666666,718.089430894309,766.6666666666667,111.89501588518499,16.666666666666742
30,2330.204166666666,703.1976744186047,762.5,120.72325722797883,20.83333333333337
30,2335.204166666666,689.2045454545454,760.4166666666666,130.70112000115387,27.08333333333337
30,2340.204166666666,686.1434108527133,762.5,131.68537932826797,25.0
30,2345.204166666666,681.9128787878789,752.0833333333333,129.73257869549337,35.41666666666674
30,2350.204166666666,677.5568181818182,747.9166666666667,133.4490047827105,37.5
30,2355.204166666666,670.0925925925925,737.5,134.2543029968731,37.5
30,2360.204166666666,674.1477272727273,741.6666666666667,131.95318749391782,29.166666666666742
30,2365.204166666666,685.8901515151515,747.9166666666667,128.35049690511704,35.41666666666663
30,2370.204166666666,696.1174242424242,756.25,124.1619117738207,27.08333333333337
30,2375.204166666666,690.9883720930233,758.3333333333333,133.3021114007598,29.166666666666742
30,2380.204166666666,689.341085271318,758.3333333333333,132.44777324247238,29.16666666666663
30,2385.204166666666,690.3409090909091,760.4166666666666,132.25634783760052,25.000000000000057
30,2390.204166666666,690.4356060606061,760.4166666666666,131.13676222993794,27.08333333333337
30,2395.204166666666,688.8565891472869,762.5,132.44907967045071,25.0
30,2400.204166666666,679.5454545454547,745.8333333333333,132.17403648981445,37.5
30,2405.204166666666,678.5037878787878,735.4166666666666,128.6638223599964,43.75
30,2410.204166666666,689.2992424242425,756.25,126.24828179323264,31.25
30,2415.204166666666,687.1212121212121,754.1666666666666,123.3476650149749,33.33333333333337
30,2420.204166666666,693.6046511627907,754.1666666666666,138.74302510356563,33.33333333333337
30,2425.204166666666,685.3219696969697,727.0833333333333,137.9455684029933,56.250000000000114
30,2430.204166666666,692.732558139535,750.0,136.9792116248819,33.33333333333337
30,2435.204166666666,698.4496124031008,750.0,132.19699073092323,33.33333333333337
30,2440.204166666666,688.6363636363636,741.6666666666667,134.84596089204263,33.33333333333326
30,2445.204166666666,703.3730158730159,741.6666666666667,137.49611381314708,35.41666666666657
30,2450.204166666666,700.2906976744187,733.3333333333333,141.1123473247153,41.66666666666674
30,2455.204166666666,695.2519379844961,733.3333333333333,144.83667764278232,41.66666666666663
30,2460.204166666666,699.515503875969,704.1666666666667,147.74878496153678,62.5
30,2465.204166666666,691.3759689922481,691.6666666666666,150.14982417494272,70.83333333333337
30,2470.204166666666,708.3333333333334,697.9166666666667,157.24917654167615,66.66666666666663
30,2475.204166666666,693.8953488372094,679.1666666666667,147.91973738487485,70.83333333333326
30,2480.204166666666,679.4507575757575,668.75,122.06303482093573,47.91666666666663
30,2485.204166666666,701.3565891472867,666.6666666666666,113.37009546974565,41.66666666666674
30,2490.204166666666,690.9883720930233,666.6666666666666,113.37085860638638,58.33333333333337
30,2495.204166666666,706.201550387597,700.0,106.7898752591112,62.5
30,2500.204166666666,702.5193798449612,700.0,86.47423852020079,62.5
30,2505.204166666666,691.8560606060606,704.1666666666667,105.61571406766173,70.83333333333337
30,2510.204166666666,719.5436507936508,737.5,131.97827724027692,50.0
30,2515.204166666666,717.2619047619048,747.9166666666667,132.14848111416956,37.5
30,2520.204166666666,725.0000000000001,752.0833333333333,125.13204407858345,35.41666666666674
30,2525.204166666666,722.5198412698412,750.0,124.27656348189103,35.416666666666686
30,2530.204166666666,715.3769841269841,745.8333333333334,126.72083811419054,37.5
30,2535.204166666666,731.30081300813,750.0,110.98173785903417,33.33333333333337
30,2540.204166666666,700.6782945736434,737.5,95.12301555925234,33.33333333333326
30,2545.204166666666,710.1190476190476,750.0,90.2051958144118,37.5
30,2550.204166666666,697.1899224806202,733.3333333333333,101.01060490578699,33.333333333333485
30,2555.204166666666,694.7674418604652,733.3333333333333,110.42730939745125,41.66666666666674
30,2560.204166666666,680.871212121212,729.1666666666666,119.89349205116469,52.08333333333337
30,2565.204166666666,686.5530303030303,733.3333333333333,116.90819281025288,39.58333333333343
30,2570.204166666666,681.7234848484848,733.3333333333333,122.0690486559545,41.66666666666674
30,2575.204166666666,670.9259259259259,720.8333333333334,119.04863064745764,45.83333333333337
30,2580.204166666666,698.062015503876,720.8333333333334,139.4710482902632,45.83333333333337
30,2585.204166666666,711.1111111111111,725.0,148.1556287632592,37.5
30,2590.204166666666,724.0853658536586,733.3333333333333,140.95566739005812,33.333333333333485
30,2595.204166666666,711.8055555555555,727.0833333333333,147.4860377235641,39.58333333333337
30,2600.204166666666,726.8292682926829,741.6666666666667,141.4552613206188,33.33333333333326
30,2605.204166666666,716.260162601626,733.3333333333333,150.2220719504428,41.66666666666663
30,2610.204166666666,716.0714285714288,743.75,139.31443711509343,31.25
30,2615.204166666666,713.0952380952382,747.9166666666667,127.23467074734712,39.583333333333314
30,2620.2041666666655,710.1190476190476,737.5,122.48880976329238,41.66666666666663
30,2625.2041666666655,716.2698412698413,743.75,118.03713618235312,37.49999999999994
30,2630.2041666666655,707.5396825396825,729.1666666666666,122.21919760097994,47.916666666666686
30,2635.2041666666655,708.2364341085271,729.1666666666666,117.09984904448393,50.0
30,2640.2041666666655,699.7023809523808,729.1666666666666,100.96247884790769,50.0
30,2645.2041666666655,698.6434108527131,729.1666666666666,98.08736779739998,41.66666666666674
30,2650.2041666666655,697.4806201550388,729.1666666666666,102.208335900985,41.66666666666674
30,2655.2041666666655,709.5238095238096,741.6666666666667,117.35166830269712,31.25
30,2660.2041666666655,723.9087301587301,747.9166666666667,105.02717548949938,25.0
30,2665.2041666666655,731.7073170731708,750.0,102.50287110130546,20.83333333333337
30,2670.2041666666655,722.0238095238094,745.8333333333334,105.1127190263991,22.916666666666686
30,2675.2041666666655,713.3928571428571,741.6666666666667,112.14954339290263,22.916666666666686
30,2680.2041666666655,726.8849206349206,747.9166666666667,125.45716664015518,16.66666666666663
30,2685.2041666666655,722.0528455284554,750.0,131.63714035509588,25.0
30,2690.2041666666655,723.4756097560976,750.0,148.54840476057146,33.33333333333337
30,2695.2041666666655,717.6587301587302,750.0,147.95297425635653,33.33333333333337
30,2700.2041666666655,726.321138211382,750.0,146.97894969388142,25.0
30,2705.2041666666655,724.4918699186992,750.0,147.1317056964209,29.16666666666663
30,2710.2041666666655,715.6746031746031,741.6666666666667,148.8887516539778,33.333333333333314
30,2715.2041666666655,702.6162790697675,737.5,141.2400885452854,37.5
30,2720.2041666666655,686.6477272727274,733.3333333333333,131.30291336948343,41.66666666666674
30,2725.2041666666655,680.8712121212121,725.0,135.36580196126147,50.0
30,2730.2041666666655,678.0555555555555,720.8333333333334,139.69607613268417,62.5
30,2735.2041666666655,677.4074074074074,720.8333333333334,137.4210312975171,62.5
30,2740.2041666666655,683.7209302325581,741.6666666666667,119.76061175618048,37.5
30,2745.2041666666655,672.962962962963,737.5,127.15820640315665,41.66666666666674
30,2750.2041666666655,674.5265151515151,725.0,127.44766338907782,47.916666666666686
30,2755.2041666666655,702.8769841269841,747.9166666666667,149.04701818819143,39.58333333333326
30,2760.2041666666655,697.8682170542636,720.8333333333334,144.52180113335868,54.16666666666663
30,2765.2041666666655,711.6071428571429,725.0,155.8250609578958,43.75
30,2770.2041666666655,697.4806201550387,716.6666666666666,163.48434956284717,58.33333333333337
30,2775.2041666666655,712.9960317460318,722.9166666666667,155.1242027426791,49.99999999999994
30,2780.2041666666655,729.7764227642276,741.6666666666667,145.0920474587507,29.166666666666742
30,2785.2041666666655,716.2698412698413,743.75,123.53411997203106,31.25
30,2790.2041666666655,732.9268292682926,754.1666666666666,148.9919975888922,25.0
30,2795.2041666666655,712.202380952381,750.0,145.3356573605592,29.16666666666663
30,2800.2041666666655,717.6587301587302,745.8333333333334,139.33643533512083,29.166666666666686
30,2805.2041666666655,715.2777777777778,743.75,135.73069176328616,33.333333333333314
30,2810.2041666666655,700.2906976744187,741.6666666666667,146.4736378263102,37.499999999999886
30,2815.2041666666655,710.6589147286822,737.5,152.32518366536874,37.5
30,2820.2041666666655,695.8333333333334,741.6666666666667,126.28637042253354,33.33333333333326
30,2825.2041666666655,693.4108527131783,737.5,128.59651610167506,37.5
30,2830.2041666666655,701.937984496124,741.6666666666667,138.45970047309896,37.499999999999886
30,2835.2041666666655,711.7063492063493,752.0833333333333,137.21866418794048,31.250000000000057
30,2840.2041666666655,705.5232558139535,741.6666666666667,139.43954608513224,37.499999999999886
30,2845.2041666666655,690.7945736434109,750.0,130.40737371023818,29.16666666666663
30,2850.2041666666655,676.0416666666666,725.0,139.53921552007753,47.916666666666686
30,2855.2041666666655,683.5227272727271,733.3333333333333,134.7548812638353,39.58333333333337
30,2860.2041666666655,671.6666666666666,708.3333333333334,114.82103443835955,50.0
30,2865.2041666666655,662.962962962963,708.3333333333334,115.9618258813149,45.83333333333326
30,2870.2041666666655,662.5925925925925,704.1666666666667,109.48358206536301,58.33333333333337
30,2875.2041666666655,665.925925925926,708.3333333333334,112.63771344153709,62.5
30,2880.2041666666655,679.5454545454546,710.4166666666667,100.9596163773668,60.41666666666663
30,2885.2041666666655,671.7592592592592,691.6666666666666,105.46871427754311,75.00000000000011
30,2890.2041666666655,675.5681818181818,727.0833333333333,112.06523408335607,47.91666666666674
30,2895.2041666666655,691.2790697674419,725.0,120.34251009797079,45.83333333333337
30,2900.2041666666655,708.6309523809524,743.75,118.25427071196316,31.25
30,2905.2041666666655,706.25,743.75,118.77540378679184,29.166666666666686
30,2910.2041666666655,694.282945736434,733.3333333333333,126.54803098694023,37.5
30,2915.2041666666655,696.9961240310078,737.5,126.0285906945319,33.33333333333337
30,2920.2041666666655,706.0515873015872,745.8333333333334,125.15303092286875,33.33333333333326
30,2925.2041666666655,705.0387596899225,745.8333333333334,120.5955451040962,33.33333333333337
30,2930.2041666666655,706.201550387597,729.1666666666666,131.57751431255775,33.33333333333337
30,2935.2041666666655,713.468992248062,729.1666666666666,124.10005806788455,33.33333333333337
30,2940.2041666666655,744.5121951219513,741.6666666666667,131.11249087797717,29.166666666666742
30,2945.2041666666655,743.8541666666667,741.6666666666667,135.26902701211174,41.66666666666663
30,2950.2041666666655,729.563492063492,725.0,139.6430357814188,31.250000000000057
30,2955.2041666666655,705.5555555555557,716.6666666666666,142.41988508480833,39.583333333333314
30,2960.2041666666655,711.8055555555557,739.5833333333334,125.44270070751406,29.166666666666686
30,2965.2041666666655,718.5975609756098,729.1666666666666,140.877389438524,41.66666666666663
30,2970.2041666666655,692.829457364341,729.1666666666666,129.18690823667637,41.66666666666674
30,2975.2041666666655,709.1269841269841,741.6666666666667,117.17094158621533,31.25
30,2980.2041666666655,723.3739837398375,750.0,134.30271973588356,25.0
30,2985.2041666666655,720.6349206349207,752.0833333333333,141.28041672213647,22.916666666666742
30,2990.2041666666655,706.201550387597,729.1666666666666,144.79040936139972,37.500000000000114
30,2995.2041666666655,689.5833333333334,729.1666666666666,135.5928341272748,39.58333333333337
30,3000.2041666666655,672.4074074074075,716.6666666666666,140.90506311900273,45.83333333333337
30,3005.2041666666655,667.0289855072464,704.1666666666667,151.07849445519759,43.75
30,3010.2041666666655,656.8840579710145,700.0,135.43829568380886,43.75000000000006
30,3015.2041666666655,671.4814814814815,708.3333333333334,127.56817459489065,41.66666666666663
30,3020.2041666666655,675.3787878787878,712.5,130.7428159875208,52.083333333333314
30,3025.2041666666655,680.6818181818181,722.9166666666667,132.47998151240398,47.91666666666663
30,3030.2041666666655,702.0833333333334,745.8333333333334,118.17137233053693,29.166666666666686
30,3035.2041666666655,692.0542635658916,741.6666666666667,114.16613787926568,37.499999999999886
30,3040.2041666666655,690.7945736434108,741.6666666666667,110.56372409726298,37.499999999999886
30,3045.2041666666655,690.6007751937985,750.0,111.4519562159333,29.16666666666663
30,3050.2041666666655,690.8914728682171,741.6666666666667,118.80222262297941,37.5
30,3055.2041666666655,697.6744186046511,741.6666666666667,111.41563796398209,33.33333333333326
30,3060.2041666666655,690.8143939393941,727.0833333333333,118.61461936680118,39.58333333333337
30,3065.2041666666655,701.5503875968992,737.5,103.23801629780307,25.0
30,3070.2041666666655,701.8410852713179,741.6666666666667,107.2685089262443,20.833333333333258
30,3075.2041666666655,700.0,737.5,106.44337367324374,20.833333333333258
30,3080.2041666666655,697.8682170542636,737.5,98.80809227015857,20.833333333333258
30,3085.2041666666655,680.4924242424242,731.25,106.38822035190405,24.999999999999943
30,3090.2041666666655,690.8914728682171,737.5,100.87356460772017,20.833333333333258
30,3095.2041666666655,678.3143939393939,739.5833333333334,107.31701098813629,18.749999999999943
30,3100.2041666666655,680.2083333333333,739.5833333333334,107.35291677597809,22.916666666666686
30,3105.2041666666655,684.1856060606061,743.75,109.63580310683169,27.08333333333337
30,3110.2041666666655,690.1515151515151,741.6666666666667,121.03228378652184,27.08333333333337
30,3115.2041666666655,685.2272727272726,741.6666666666667,126.01479082883279,29.16666666666663
30,3120.2041666666655,675.3787878787879,727.0833333333333,128.08158315184366,43.750000000000114
30,3125.2041666666655,688.953488372093,729.1666666666666,123.32168180474183,37.500000000000114
30,3130.2041666666655,682.8598484848486,720.8333333333333,126.82841031498266,45.833333333333485
30,3135.2041666666655,680.0189393939395,720.8333333333333,125.80355269499977,37.5
30,3140.2041666666655,668.5185185185185,712.5,115.96296007288898,45.83333333333326
30,3145.2041666666655,675.6628787878788,718.75,115.77714318700002,37.49999999999994
30,3150.2041666666655,692.1401515151515,743.75,107.31940508106281,22.916666666666686
30,3155.2041666666655,687.594696969697,745.8333333333334,111.55571485335702,20.83333333333337
30,3160.2041666666655,678.598484848485,745.8333333333334,116.38459432459496,22.916666666666686
30,3165.2041666666655,684.8484848484849,735.4166666666666,112.6348277232916,22.91666666666663
30,3170.2041666666655,700.1937984496125,745.8333333333334,102.57092610121056,16.66666666666663
30,3175.2041666666655,698.1589147286822,745.8333333333334,99.004228394872,16.66666666666663
30,3180.2041666666655,698.3527131782946,741.6666666666667,99.07867384148952,20.833333333333258
30,3185.2041666666655,694.9612403100775,741.6666666666667,100.70665555214846,16.666666666666515
30,3190.2041666666655,691.8560606060605,741.6666666666667,99.30700831461667,20.833333333333258
30,3195.2041666666655,677.0833333333334,737.5,111.45437126189809,25.0
30,3200.2041666666655,661.1111111111111,729.1666666666666,112.71024125982734,33.33333333333337
30,3205.2041666666655,668.3333333333333,737.5,112.7746367179637,29.166666666666742
30,3210.2041666666655,659.7222222222222,725.0,116.7410477176825,41.66666666666663
30,3215.2041666666655,662.4074074074074,733.3333333333333,116.10215457698722,33.333333333333485
30,3220.2041666666655,673.2007575757575,737.5,115.00195807537295,27.083333333333314
30,3225.2041666666655,682.4810606060606,741.6666666666667,107.48993232052081,20.833333333333258
30,3230.2041666666655,676.2310606060606,741.6666666666667,113.08732543043523,20.833333333333258
30,3235.2041666666655,662.3148148148149,733.3333333333333,119.68483561647737,29.166666666666742
30,3240.2041666666655,654.891304347826,706.25,121.51723556759045,49.99999999999994
30,3245.2041666666655,665.4891304347826,739.5833333333334,123.10496576205381,29.166666666666686
30,3250.2041666666655,672.3148148148149,741.6666666666667,120.13958223656994,25.0
30,3255.2041666666655,677.4621212121212,739.5833333333334,139.98176728651774,27.08333333333337
30,3260.2041666666655,692.5387596899225,750.0,137.47161244821723,16.666666666666742
30,3265.2041666666655,704.9418604651163,750.0,129.50626061821646,16.666666666666742
30,3270.2041666666655,727.7439024390245,754.1666666666666,130.13284397086616,12.500000000000114
30,3275.2041666666655,710.813492063492,741.6666666666667,129.96918126658713,37.49999999999994
30,3280.2041666666655,699.7023809523811,722.9166666666667,136.2591611286477,43.75
30,3285.2041666666655,706.0515873015873,729.1666666666666,122.4993860285219,41.666666666666686
30,3290.2041666666655,698.1060606060607,710.4166666666667,140.60378334192657,56.25
30,3295.2041666666655,699.7093023255813,700.0,139.09427873573696,54.16666666666663
30,3300.2041666666655,693.0232558139534,700.0,146.2768791443681,54.16666666666663
30,3305.2041666666655,715.2777777777779,735.4166666666666,158.4179990435353,33.33333333333337
30,3310.2041666666655,724.390243902439,741.6666666666667,169.4342121171883,33.33333333333337
30,3315.2041666666655,719.4767441860466,720.8333333333334,168.42750619514482,41.66666666666663
30,3320.2041666666655,731.5040650406504,737.5,153.9977925879174,37.5
30,3325.2041666666655,732.3170731707318,737.5,151.7541542762781,37.5
30,3330.2041666666655,724.9007936507937,735.4166666666666,137.60770632294964,37.5
30,3335.2041666666655,705.4563492063493,722.9166666666667,153.679708013717,50.0
30,3340.2041666666655,704.1666666666667,725.0,134.0641309764483,41.666666666666686
30,3345.2041666666655,709.9206349206348,737.5,154.30792358777907,37.5
30,3350.2041666666655,709.1269841269841,733.3333333333333,153.79470094904167,39.58333333333343
30,3355.2041666666655,700.2906976744187,725.0,156.14188150551942,54.16666666666663
30,3360.2041666666655,711.6071428571429,741.6666666666667,153.57234297776728,41.666666666666686
30,3365.2041666666655,706.5891472868216,741.6666666666667,154.90287684570507,41.66666666666674
30,3370.2041666666655,706.1507936507935,729.1666666666666,155.8731582932723,50.0
30,3375.2041666666655,692.1511627906976,733.3333333333333,131.84376683952803,33.333333333333485
30,3380.2041666666655,697.5775193798451,737.5,125.11315169068016,29.166666666666742
30,3385.2041666666655,703.8690476190475,739.5833333333334,123.99116224141137,22.916666666666742
30,3390.2041666666655,682.3863636363636,727.0833333333333,131.77034370060588,31.25
30,3395.2041666666655,685.3682170542635,733.3333333333333,108.65478899773466,25.0
30,3400.2041666666655,708.6309523809524,735.4166666666666,134.95392436498418,22.91666666666663
30,3405.2041666666655,704.1666666666667,729.1666666666666,133.30852943890733,29.16666666666663
30,3410.2041666666655,713.3928571428571,718.75,157.19675423249402,33.333333333333314
30,3415.2041666666655,735.670731707317,720.8333333333334,170.26849910837262,29.166666666666742
30,3420.2041666666655,770.1923076923077,720.8333333333334,171.78952143862955,29.16666666666663
30,3425.2041666666655,793.4210526315788,718.75,171.78413603897718,25.000000000000057
30,3430.2041666666655,766.2393162393162,704.1666666666667,170.84615610785661,20.833333333333258
30,3435.2041666666655,772.2222222222223,695.8333333333333,169.57261953023837,29.16666666666663
30,3440.2041666666655,752.8125,691.6666666666666,160.49299577114087,33.33333333333326
30,3445.2041666666655,719.3452380952381,681.25,161.80883193850192,25.000000000000057
30,3450.2041666666655,698.546511627907,679.1666666666667,140.99949025003258,16.666666666666742
30,3455.2041666666655,694.3181818181819,668.75,137.8067722698672,14.583333333333371
30,3460.2041666666655,712.3015873015873,670.8333333333333,142.89565070109356,16.666666666666686
30,3465.2041666666655,747.8125,677.0833333333334,168.12128976831525,27.08333333333337
30,3470.2041666666655,767.7350427350427,683.3333333333334,172.19907100643888,33.33333333333337
30,3475.2041666666655,796.3963963963964,683.3333333333334,156.01730253519008,25.0
30,3480.2041666666655,824.3055555555557,808.3333333333334,162.34730310478466,152.08333333333331
30,3485.2041666666655,816.4351851851853,679.1666666666667,159.4694341901203,33.33333333333337
30,3490.2041666666655,810.3070175438597,679.1666666666667,162.05250477477188,31.250000000000057
30,3495.2041666666655,763.9957264957266,675.0,148.81809948941873,12.5
30,3500.2041666666655,745.0,668.75,140.9237685665855,6.25
30,3505.2041666666655,734.1463414634146,666.6666666666666,136.72515107934376,8.333333333333371
30,3510.2041666666655,711.1111111111111,670.8333333333333,113.95166489855542,8.333333333333258
30,3515.2041666666655,733.739837398374,670.8333333333333,134.10196705399468,8.333333333333258
30,3520.2041666666655,729.2708333333333,670.8333333333333,130.500377615133,8.333333333333258
30,3525.2041666666655,766.4529914529913,675.0,153.86394151368168,12.5
30,3530.2041666666655,777.7412280701755,675.0,157.84442152784524,18.75
30,3535.2041666666655,802.8508771929825,675.0,161.53154839020107,18.75
30,3540.2041666666655,807.3464912280701,672.9166666666666,166.21118563622312,29.166666666666572
30,3545.2041666666655,792.3245614035087,670.8333333333333,165.0300452550672,20.833333333333258
30,3550.2041666666655,808.1140350877192,672.9166666666666,166.3537246941419,29.166666666666572
30,3555.2041666666655,790.0219298245614,670.8333333333333,161.65476491461223,22.916666666666572
30,3560.2041666666655,779.3803418803418,670.8333333333333,159.36284845874803,16.66666666666663
30,3565.2041666666655,756.517094017094,666.6666666666666,151.5688994452765,8.333333333333258
30,3570.2041666666655,766.0256410256411,670.8333333333333,154.2778714072045,8.333333333333258
30,3575.2041666666655,772.6495726495727,666.6666666666666,156.16823846721493,8.333333333333258
30,3580.2041666666655,759.1880341880342,666.6666666666666,151.43133940768607,8.333333333333258
30,3585.2041666666655,756.25,666.6666666666666,150.62193004992935,8.333333333333258
30,3590.2041666666655,750.2083333333333,672.9166666666666,144.9652122037827,10.416666666666686
30,3595.2041666666655,743.3943089430894,675.0,150.28611488728183,12.5
30,3600.2041666666655,729.2682926829269,675.0,152.0790176467519,12.5
30,3605.2041666666655,708.0357142857143,677.0833333333334,146.07382277981867,10.416666666666742
30,3610.2041666666655,692.0454545454545,677.0833333333334,155.25833420662306,12.5
30,3615.2041666666655,692.2480620155038,679.1666666666667,155.80049468143608,12.500000000000114
30,3620.2041666666655,715.9722222222223,679.1666666666667,178.2791799727143,20.833333333333428
30,3625.2041666666655,730.9959349593496,675.0,180.12835118250817,16.66666666666663
30,3630.2041666666655,750.625,679.1666666666667,181.23692113142008,14.583333333333428
30,3635.2041666666655,758.7606837606837,675.0,176.1573957081509,8.333333333333371
30,3640.2041666666655,776.7543859649124,677.0833333333334,158.44777626418815,10.416666666666742
30,3645.2041666666655,757.3958333333333,679.1666666666667,160.46830809359727,8.333333333333485
30,3650.2041666666655,738.3130081300812,679.1666666666667,147.4971148264054,8.333333333333485
30,3655.2041666666655,708.0357142857142,679.1666666666667,146.83423324897157,10.416666666666686
30,3660.2041666666655,677.5568181818181,675.0,136.82508753059247,14.583333333333314
30,3665.2041666666655,664.3115942028986,675.0,141.4067664257347,18.749999999999943
30,3670.2041666666655,656.9746376811594,672.9166666666666,144.43924763040914,20.833333333333314
30,3675.2041666666655,657.4074074074074,670.8333333333333,147.04284383703023,25.0
30,3680.2041666666655,651.7210144927536,675.0,149.77755132833124,68.74999999999994
30,3685.2041666666655,672.5925925925925,675.0,154.30350420042228,16.66666666666663
30,3690.2041666666655,686.0795454545454,675.0,147.5766322573431,12.5
30,3695.2041666666655,705.3294573643411,683.3333333333334,151.30420008530876,8.333333333333371
30,3700.2041666666655,681.439393939394,683.3333333333334,140.08019155388823,8.333333333333371
30,3705.2041666666655,674.8148148148149,683.3333333333334,129.22455800541445,8.333333333333371
30,3710.2041666666655,667.3148148148149,683.3333333333334,118.76148122180757,8.333333333333371
30,3715.2041666666655,653.3333333333334,683.3333333333334,110.2238883162609,8.333333333333371
30,3720.2041666666655,649.0942028985507,685.4166666666667,113.24313214492295,10.416666666666515
30,3725.2041666666655,652.1739130434781,681.25,108.87237378455393,12.5
30,3730.2041666666655,669.074074074074,683.3333333333334,99.64618946651402,8.333333333333371
30,3735.2041666666655,663.7962962962963,679.1666666666667,122.67027893689519,12.500000000000114
30,3740.2041666666655,658.9814814814815,679.1666666666667,125.82416293205893,16.666666666666515
30,3745.2041666666655,666.6666666666666,683.3333333333334,121.91586662675837,12.499999999999886
30,3750.2041666666655,686.4583333333334,681.25,137.9591377028379,10.416666666666686
30,3755.2041666666655,671.780303030303,681.25,148.54990188410372,18.75
30,3760.2041666666655,671.3888888888889,679.1666666666667,159.5141376211215,25.0
30,3765.2041666666655,682.65503875969,679.1666666666667,140.8823123027642,8.333333333333485
30,3770.2041666666655,695.4457364341085,679.1666666666667,145.57747951147184,8.333333333333258
30,3775.2041666666655,686.3636363636364,679.1666666666667,149.0180055746142,4.1666666666667425
30,3780.2041666666655,664.537037037037,679.1666666666667,134.23176892599278,4.1666666666667425
30,3785.2041666666655,665.0000000000001,679.1666666666667,100.98317191542861,4.166666666666629
30,3790.2041666666655,667.5925925925926,679.1666666666667,80.16165450497007,4.166666666666629
30,3795.2041666666655,687.3148148148149,683.3333333333334,116.04595279186385,4.166666666666629
30,3800.2041666666655,682.4810606060606,683.3333333333334,105.07387714744934,4.166666666666629
30,3805.2041666666655,691.8560606060605,687.5,97.99324708388201,8.333333333333258
30,3810.2041666666655,701.3565891472867,691.6666666666666,90.01359818932113,8.333333333333258
30,3815.2041666666655,686.5530303030303,691.6666666666666,104.70158636327407,4.166666666666629
30,3820.2041666666655,689.0503875968992,691.6666666666666,125.09263517163915,8.333333333333258
30,3825.2041666666655,681.4393939393939,691.6666666666666,109.55429488754113,8.333333333333314
30,3830.2041666666655,691.6666666666667,691.6666666666666,123.95558511056838,12.500000000000114
30,3835.2041666666655,712.4007936507936,704.1666666666667,151.59631647928146,16.66666666666663
30,3840.2041666666655,707.2420634920635,706.25,156.55305170390696,14.583333333333371
30,3845.2041666666655,719.7420634920636,712.5,149.1735916200671,8.333333333333371
30,3850.2041666666655,720.734126984127,712.5,133.31265113740815,8.333333333333314
30,3855.2041666666655,706.3492063492064,712.5,126.49926791310922,8.333333333333371
30,3860.2041666666655,709.6230158730158,712.5,126.03396249127363,12.5
30,3865.2041666666655,710.6150793650793,714.5833333333333,127.29998652488042,14.583333333333314
30,3870.2041666666655,704.1666666666666,716.6666666666666,132.1402412606909,12.5
30,3875.2041666666655,711.7063492063492,714.5833333333333,144.2590347901855,14.583333333333371
30,3880.2041666666655,727.8125,712.5,166.43516908772392,20.833333333333258
30,3885.2041666666655,761.9658119658119,716.6666666666666,185.04281620657315,16.66666666666663
30,3890.2041666666655,775.2136752136751,716.6666666666666,183.7762510536713,16.66666666666663
30,3895.2041666666655,749.6875,712.5,172.39459469046594,20.83333333333337
30,3900.2041666666655,761.25,716.6666666666666,163.97451768534782,20.83333333333337
30,3905.204166666665,763.1410256410257,720.8333333333334,166.23721662351437,25.000000000000114
30,3910.204166666665,742.8861788617886,725.0,150.84324294806655,25.0
30,3915.204166666665,711.531007751938,725.0,124.55223111163517,20.83333333333337
30,3920.204166666665,712.3015873015873,725.0,128.52401227722532,20.833333333333258
30,3925.204166666665,707.6388888888889,720.8333333333334,129.25323831950786,16.66666666666663
30,3930.204166666665,703.0038759689922,712.5,129.18690823667637,16.66666666666663
30,3935.204166666665,720.7317073170733,712.5,136.65932337003807,12.5
30,3940.204166666665,724.6031746031747,712.5,148.5613299959444,10.416666666666686
30,3945.204166666665,742.6041666666667,714.5833333333333,155.9351885580249,10.416666666666629
30,3950.204166666665,728.9634146341464,720.8333333333334,134.39341353009453,12.5
30,3955.204166666665,741.1585365853658,725.0,144.2388882260736,12.5
30,3960.204166666665,733.0284552845528,729.1666666666666,155.69175343196846,8.333333333333371
30,3965.204166666665,714.2441860465116,729.1666666666666,138.98676875874304,12.500000000000114
30,3970.204166666665,712.6984126984127,729.1666666666666,122.58490911698092,12.500000000000057
30,3975.204166666665,704.4573643410852,720.8333333333334,126.9438648853947,16.66666666666663
30,3980.204166666665,696.5116279069767,720.8333333333334,131.1828381720898,25.0
30,3985.204166666665,687.887596899225,720.8333333333334,115.74470585062367,20.83333333333337
30,3990.204166666665,692.5387596899225,720.8333333333334,107.60806575909831,20.83333333333337
30,3995.204166666665,680.7765151515151,718.75,128.54537975078554,22.916666666666742
30,4000.204166666665,684.2803030303031,718.75,140.19949229288432,27.08333333333337
30,4005.204166666665,668.0555555555557,716.6666666666666,129.73968692592243,33.33333333333326
30,4010.204166666665,658.0555555555557,687.5,133.1983217960832,54.16666666666674
30,4015.204166666665,664.2210144927536,693.75,133.75966587594422,68.75
30,4020.204166666665,666.1111111111111,700.0,137.24896735642145,66.66666666666674
30,4025.204166666665,686.4583333333334,712.5,128.40682042246723,43.74999999999994
30,4030.204166666665,676.1363636363635,714.5833333333333,119.00468620790075,41.666666666666686
30,4035.204166666665,697.9651162790699,725.0,111.10753501074267,37.5
30,4040.204166666665,708.3333333333333,737.5,102.84478725025524,29.166666666666742
30,4045.204166666665,707.0436507936508,735.4166666666666,104.32909326382442,27.08333333333337
30,4050.204166666665,694.4767441860465,725.0,109.04725434000791,33.33333333333326
30,4055.204166666665,668.1481481481482,720.8333333333334,100.68482190177274,37.499999999999886
30,4060.204166666665,659.0579710144928,718.75,109.28112584483742,43.75
30,4065.204166666665,645.1086956521739,702.0833333333334,109.51740499472852,56.249999999999886
30,4070.204166666665,636.081560283688,679.1666666666667,109.68112472610814,83.33333333333326
30,4075.204166666665,629.6875,664.5833333333334,112.03978958546206,85.41666666666663
30,4080.204166666665,658.6050724637681,704.1666666666667,129.682072581398,54.166666666666515
30,4085.204166666665,666.5740740740741,725.0,131.00623373418767,33.33333333333337
30,4090.204166666665,686.046511627907,737.5,144.60904384905652,20.833333333333258
30,4095.204166666665,695.4457364341084,737.5,155.05379131865388,29.166666666666742
30,4100.2041666666655,698.2558139534883,737.5,157.0363350130629,33.33333333333337
30,4105.2041666666655,721.7479674796748,737.5,162.69089267154934,29.166666666666742
30,4110.2041666666655,702.8100775193798,737.5,151.92961063975412,33.33333333333337
30,4115.2041666666655,707.0121951219512,737.5,154.15100997184143,33.33333333333337
30,4120.2041666666655,713.5912698412698,737.5,146.2090384690888,33.33333333333326
30,4125.2041666666655,703.0038759689922,737.5,137.4859467968627,33.33333333333326
30,4130.2041666666655,711.5079365079366,737.5,130.56646934226782,29.166666666666742
30,4135.2041666666655,708.5271317829457,737.5,131.15454921858753,29.166666666666742
30,4140.2041666666655,714.8373983739837,741.6666666666667,136.17750613631745,29.16666666666663
30,4145.2041666666655,726.7857142857143,739.5833333333334,142.96139246922655,29.166666666666686
30,4150.2041666666655,711.0119047619048,739.5833333333334,131.982555064182,29.166666666666686
30,4155.2041666666655,721.5447154471544,745.8333333333334,129.0991168766068,29.16666666666663
30,4160.2041666666655,718.3531746031746,743.75,135.54460661579276,31.25
30,4165.2041666666655,706.6468253968254,745.8333333333334,125.8105815988886,29.16666666666663
30,4170.2041666666655,688.9204545454545,733.3333333333333,133.10585968303243,29.16666666666663
30,4175.2041666666655,690.5303030303031,745.8333333333334,115.20878851825506,25.0
30,4180.2041666666655,680.4629629629629,745.8333333333334,122.78280532692929,29.16666666666663
30,4185.2041666666655,683.7121212121211,745.8333333333334,134.96404135723895,33.333333333333314
30,4190.2041666666655,686.6279069767442,741.6666666666667,129.0275689195226,29.166666666666742
30,4195.2041666666655,675.0946969696969,727.0833333333333,136.2729742512269,39.583333333333485
30,4200.2041666666655,683.1439393939394,733.3333333333333,132.24163827118676,35.4166666666668
30,4205.2041666666655,680.5871212121212,722.9166666666667,147.61219395578317,47.91666666666663
30,4210.2041666666655,679.5454545454545,727.0833333333333,150.56637845131172,39.583333333333485
30,4215.2041666666655,662.8703703703703,716.6666666666666,137.7231379924814,45.83333333333337
30,4220.2041666666655,661.0507246376811,714.5833333333333,140.592928143302,56.250000000000114
30,4225.2041666666655,665.5555555555555,708.3333333333334,136.58557276253114,62.5
30,4230.2041666666655,674.2592592592592,733.3333333333333,131.40259554362103,37.500000000000114
30,4235.2041666666655,668.7037037037037,733.3333333333333,116.00060893740863,37.500000000000114
30,4240.2041666666655,675.6628787878788,733.3333333333333,115.23885143203722,37.500000000000114
30,4245.2041666666655,676.8518518518518,737.5,114.3077110515128,33.33333333333337
30,4250.2041666666655,683.4280303030303,716.6666666666667,112.83680789840655,54.16666666666663
30,4255.2041666666655,699.2248062015505,720.8333333333334,115.83553088997382,45.83333333333337
30,4260.2041666666655,706.0515873015873,712.5,120.9478794781643,50.0
30,4265.2041666666655,705.8531746031746,704.1666666666667,122.23936491102009,43.75
30,4270.2041666666655,731.910569105691,695.8333333333333,131.57568638092854,41.66666666666674
30,4275.2041666666655,734.7560975609756,695.8333333333333,130.96400638662016,41.66666666666663
30,4280.2041666666655,724.0853658536586,704.1666666666667,133.0090855394599,41.66666666666674
30,4285.2041666666655,727.7777777777778,704.1666666666667,136.67889429072352,43.75
30,4290.2041666666655,702.9069767441861,700.0,146.48531944396328,41.66666666666674
30,4295.2041666666655,687.7906976744187,695.8333333333333,154.4650569764901,54.16666666666674
30,4300.2041666666655,675.1851851851852,683.3333333333334,140.46941605289095,54.16666666666674
30,4305.2041666666655,682.5757575757575,683.3333333333334,145.2390235862282,45.833333333333314
30,4310.2041666666655,678.2407407407409,683.3333333333334,152.08953103002779,58.33333333333337
30,4315.2041666666655,668.148148148148,683.3333333333334,136.4287805020278,58.33333333333337
30,4320.2041666666655,682.8598484848484,693.75,132.50474099646328,70.83333333333337
30,4325.2041666666655,695.8333333333334,706.25,119.56194268886269,62.49999999999994
30,4330.2041666666655,682.7651515151515,714.5833333333333,114.65806551357392,47.91666666666663
30,4335.2041666666655,683.4280303030303,718.75,107.09823907796584,45.83333333333337
30,4340.2041666666655,688.1782945736434,716.6666666666666,95.2749876634521,45.83333333333337
30,4345.2041666666655,685.6589147286822,720.8333333333334,101.26229727065049,50.000000000000114
30,4350.2041666666655,684.9806201550389,720.8333333333334,95.12392508415418,45.83333333333337
30,4355.2041666666655,699.0310077519381,729.1666666666666,107.7971974965662,37.500000000000114
30,4360.2041666666655,695.4457364341085,729.1666666666666,108.95659371235769,37.5
30,4365.2041666666655,690.7945736434108,725.0,107.46199547979313,33.33333333333326
30,4370.2041666666655,686.3636363636365,727.0833333333333,116.57098663906139,33.33333333333337
30,4375.2041666666655,696.6085271317829,720.8333333333334,145.49920854582527,37.5
30,4380.2041666666655,687.5946969696969,706.25,149.16999215784372,56.24999999999994
30,4385.2041666666655,680.4924242424242,704.1666666666667,152.76778054719048,66.66666666666663
30,4390.2041666666655,700.4960317460317,706.25,162.90782257447188,79.16666666666669
30,4395.2041666666655,712.6984126984127,718.75,171.85263128881053,77.08333333333326
30,4400.2041666666655,715.6746031746031,720.8333333333334,167.5783235249158,56.25
30,4405.2041666666655,700.8720930232558,720.8333333333334,142.8103870976312,50.000000000000114
30,4410.2041666666655,700.6782945736435,720.8333333333334,138.73581912064085,29.166666666666742
30,4415.2041666666655,697.5198412698413,725.0,124.7289049588086,25.0
30,4420.2041666666655,699.6124031007753,720.8333333333334,137.74573386133474,20.83333333333337
30,4425.2041666666655,702.5193798449612,720.8333333333334,132.05970175310665,20.83333333333337
30,4430.2041666666655,704.0674603174604,727.0833333333333,136.41474927768246,22.916666666666742
30,4435.2041666666655,710.3174603174602,727.0833333333333,131.37612695528856,18.75
30,4440.2041666666655,711.7063492063493,733.3333333333333,132.2531130853409,16.666666666666686
30,4445.2041666666655,714.922480620155,725.0,147.52486270967867,25.0
30,4450.2041666666655,718.9484126984128,733.3333333333333,132.7866153428921,16.666666666666742
30,4455.2041666666655,705.7539682539683,735.4166666666666,130.71603015477652,14.583333333333371
30,4460.2041666666655,725.1984126984128,733.3333333333333,145.70973967412544,16.666666666666686
30,4465.2041666666655,720.9325396825398,741.6666666666667,149.92513967353784,16.66666666666663
30,4470.2041666666655,735.670731707317,737.5,160.5439126835054,16.66666666666663
30,4475.2041666666655,736.7708333333334,739.5833333333334,162.38048283973345,16.66666666666663
30,4480.2041666666655,723.4126984126984,741.6666666666667,152.43326870021883,18.75
30,4485.2041666666655,720.436507936508,737.5,151.18885671960138,20.83333333333337
30,4490.2041666666655,715.1785714285714,737.5,142.0511921200708,20.833333333333314
30,4495.2041666666655,713.6904761904763,737.5,145.98072027837324,25.0
30,4500.2041666666655,711.2103174603175,741.6666666666667,129.26821373936286,25.0
30,4505.2041666666655,711.8217054263566,741.6666666666667,107.85889024780425,20.83333333333337
30,4510.2041666666655,707.3412698412699,737.5,110.11976697717348,27.083333333333314
30,4515.2041666666655,721.0317460317461,737.5,122.80923161022035,27.083333333333314
30,4520.2041666666655,706.8452380952381,735.4166666666666,112.37316483308271,29.16666666666663
30,4525.2041666666655,709.2261904761905,735.4166666666666,111.05300878744045,31.25
30,4530.2041666666655,706.3492063492064,739.5833333333334,112.71711244695345,27.08333333333337
30,4535.2041666666655,698.062015503876,737.5,118.32141692322374,29.166666666666742
30,4540.204166666665,708.1349206349207,741.6666666666667,114.94060112091334,20.83333333333337
30,4545.204166666665,686.4341085271318,733.3333333333333,101.97330895938165,25.0
30,4550.204166666665,696.6085271317829,741.6666666666667,99.95971333810512,25.0
30,4555.204166666665,682.9545454545455,733.3333333333333,108.2319821888264,31.250000000000114
30,4560.204166666665,681.5340909090909,729.1666666666666,107.67689357640963,33.33333333333337
30,4565.204166666665,668.2765151515151,722.9166666666667,114.0175988454771,43.75
30,4570.204166666665,669.537037037037,729.1666666666666,112.91248113057176,37.500000000000114
30,4575.204166666665,691.3825757575758,739.5833333333334,131.34539638627427,31.25
30,4580.204166666665,686.2689393939395,737.5,133.05924937727474,33.33333333333337
30,4585.204166666665,703.9728682170543,745.8333333333334,121.07240132557658,20.83333333333337
30,4590.204166666665,712.4031007751938,754.1666666666666,118.96644981099696,16.666666666666742
30,4595.204166666665,713.8888888888889,752.0833333333333,113.54590100505472,16.666666666666742
30,4600.204166666665,705.1356589147287,741.6666666666667,115.75907323743976,25.0
30,4605.204166666665,681.7234848484849,737.5,109.9250093405931,29.166666666666742
30,4610.204166666665,690.3100775193799,737.5,101.64292320582153,25.0
30,4615.204166666665,668.6111111111111,729.1666666666666,107.30352611713987,37.500000000000114
30,4620.204166666665,661.4814814814814,708.3333333333334,110.60823702946102,62.5
30,4625.204166666665,666.4855072463769,727.0833333333333,114.66859293217836,37.500000000000114
30,4630.204166666665,658.7037037037038,708.3333333333334,122.51900949644924,54.16666666666663
30,4635.204166666665,680.1136363636364,741.6666666666667,112.01937109110922,33.33333333333326
30,4640.204166666665,666.1111111111111,733.3333333333333,117.61519176251566,37.500000000000114
30,4645.204166666665,675.7575757575759,741.6666666666667,119.07899390244451,33.33333333333326
30,4650.204166666665,667.1296296296296,733.3333333333333,122.80337043013567,33.333333333333485
30,4655.204166666665,688.4689922480619,741.6666666666667,131.83005863437316,29.16666666666663
30,4660.204166666665,696.5116279069769,745.8333333333334,127.34873481270998,29.16666666666663
30,4665.204166666665,697.1899224806201,745.8333333333334,147.28226051057524,29.166666666666742
30,4670.204166666665,712.6984126984128,745.8333333333334,139.61010961762804,22.916666666666686
30,4675.204166666665,716.0714285714284,745.8333333333334,139.69385391741346,22.916666666666686
30,4680.204166666665,738.8541666666666,754.1666666666666,125.54506340416853,20.83333333333337
30,4685.204166666665,719.6428571428571,752.0833333333333,116.47154747190156,20.83333333333337
30,4690.204166666665,699.4186046511629,745.8333333333334,129.64766239775557,29.16666666666663
30,4695.204166666665,683.2386363636365,739.5833333333334,111.9747595089603,35.41666666666663
30,4700.204166666665,675.0925925925926,733.3333333333333,112.94276258641345,37.500000000000114
30,4705.204166666665,670.5555555555554,733.3333333333333,120.73663842672552,41.66666666666674
30,4710.204166666665,667.3007246376812,729.1666666666666,116.61694506377037,39.58333333333343
30,4715.204166666665,662.7777777777778,716.6666666666666,121.0662593021447,54.16666666666674
30,4720.204166666665,661.8659420289856,716.6666666666666,120.1945676735378,54.16666666666674
30,4725.204166666665,666.6666666666666,729.1666666666666,117.75399690829516,33.33333333333337
30,4730.204166666665,670.6481481481482,737.5,119.31502855114007,29.166666666666742
30,4735.204166666665,683.7121212121212,741.6666666666667,112.48319635422212,29.16666666666663
30,4740.204166666665,684.4961240310078,745.8333333333334,114.68096699526204,29.166666666666742
30,4745.204166666665,698.3527131782946,758.3333333333333,115.49918807579166,29.166666666666742
30,4750.204166666665,718.2926829268292,762.5,97.53417335939096,25.0
30,4755.204166666665,730.4878048780488,762.5,109.83114812092685,29.16666666666663
30,4760.204166666665,735.625,756.25,104.63335627329481,31.25
30,4765.204166666665,739.1666666666666,747.9166666666667,92.25143703665344,29.16666666666663
30,4770.204166666665,744.8170731707318,741.6666666666667,126.77483213292226,45.83333333333326
30,4775.204166666665,736.280487804878,737.5,126.56055006193012,20.833333333333258
30,4780.204166666665,723.8095238095239,737.5,141.04444210826674,25.0
30,4785.204166666665,723.6788617886178,737.5,141.58526774352413,25.0
30,4790.204166666665,730.3571428571429,737.5,161.0256909068147,31.25
30,4795.204166666665,723.015873015873,737.5,167.5869867140224,41.666666666666686
30,4800.204166666665,702.9761904761906,720.8333333333333,146.56548418265893,45.833333333333485
30,4805.204166666665,703.7698412698412,710.4166666666667,146.25175028429845,52.08333333333326
30,4810.204166666665,726.1178861788618,745.8333333333334,128.37805088824373,29.166666666666742
30,4815.204166666665,722.8174603174604,750.0,113.18572291584958,16.666666666666742
30,4820.204166666665,707.2420634920635,745.8333333333334,90.20480462976444,18.75
30,4825.204166666665,705.2579365079365,741.6666666666667,89.75774534130565,20.833333333333258
30,4830.204166666665,714.9801587301588,741.6666666666667,97.96394172635651,20.833333333333258
30,4835.204166666665,711.1111111111111,741.6666666666667,96.55159724438863,18.75
30,4840.204166666665,709.5238095238096,731.25,121.78551702237537,22.91666666666663
30,4845.204166666665,697.3837209302327,720.8333333333334,126.31917422268569,25.000000000000114
30,4850.204166666665,701.8410852713179,720.8333333333334,145.30887078184412,29.16666666666663
30,4855.204166666665,706.3492063492063,718.75,140.827975601767,31.25
30,4860.204166666665,718.6507936507935,735.4166666666666,140.30381672825104,24.999999999999943
30,4865.204166666665,723.9087301587301,735.4166666666666,141.68776601547708,29.16666666666663
30,4870.204166666665,712.9960317460317,729.1666666666666,127.91387731973869,31.25
30,4875.204166666665,709.325396825397,737.5,132.9701912128944,29.166666666666686
30,4880.204166666665,713.8888888888889,737.5,124.87685894765428,29.166666666666686
30,4885.204166666665,711.9186046511628,741.6666666666667,127.6847316785635,25.0
30,4890.204166666665,681.8181818181819,731.25,128.9088164914532,35.41666666666674
30,4895.204166666665,677.0833333333335,720.8333333333333,124.86588412407873,37.49999999999994
30,4900.204166666665,659.963768115942,712.5,130.2788979484819,52.08333333333337
30,4905.204166666665,666.0185185185185,708.3333333333334,129.22455800541448,54.16666666666663
30,4910.204166666665,660.3703703703703,716.6666666666666,115.46534576152884,45.83333333333337
30,4915.204166666665,669.7222222222222,725.0,116.10525092746363,41.66666666666674
30,4920.204166666665,687.8875968992248,729.1666666666666,104.76342535558751,33.33333333333337
30,4925.204166666665,684.7537878787879,743.75,113.97767409469562,27.08333333333337
30,4930.204166666665,690.5038759689922,741.6666666666667,104.74571431404178,25.0
30,4935.204166666665,705.0387596899225,745.8333333333334,112.04182914336094,20.83333333333337
30,4940.204166666665,703.9728682170543,741.6666666666667,111.61451003124087,20.833333333333258
30,4945.204166666665,684.2054263565891,729.1666666666666,120.14568337815489,33.33333333333337
30,4950.204166666665,686.6477272727273,731.25,141.06856056628743,35.416666666666686
30,4955.204166666665,699.6124031007752,737.5,133.49077371825044,29.166666666666742
30,4960.204166666665,712.5992063492063,745.8333333333334,133.9495671158368,16.666666666666686
30,4965.204166666665,698.015873015873,743.75,129.37544789089597,20.83333333333337
30,4970.204166666665,692.1511627906978,741.6666666666667,132.506767392086,25.0
30,4975.204166666665,698.8372093023256,741.6666666666667,125.8907599874893,25.0
30,4980.204166666665,686.1742424242424,743.75,109.69173952058094,22.916666666666742
30,4985.204166666665,686.6477272727271,739.5833333333334,125.1729409130961,27.08333333333337
30,4990.204166666665,694.2234848484849,741.6666666666667,123.69544026396191,25.0
30,4995.204166666665,686.2689393939395,733.3333333333333,125.12132208457766,33.333333333333485
30,5000.204166666665,694.8643410852712,745.8333333333334,121.43336653362786,29.16666666666663
30,5005.204166666665,697.9651162790697,750.0,124.76622350075196,25.0
30,5010.204166666665,691.6666666666667,745.8333333333334,129.52140228855478,29.166666666666742
30,5015.204166666665,676.4204545454546,729.1666666666666,116.10796170309774,43.75000000000006
30,5020.204166666665,668.0555555555554,704.1666666666667,111.01716356519205,66.66666666666663
30,5025.204166666665,676.2962962962963,716.6666666666666,107.10559483783643,54.16666666666674
30,5030.204166666665,673.7037037037037,716.6666666666666,103.68381355371494,45.83333333333337
30,5035.204166666665,659.873188405797,702.0833333333334,104.14391861113268,60.41666666666663
30,5040.204166666665,673.7037037037037,725.0,101.41370597063343,37.5
30,5045.204166666665,689.7727272727273,741.6666666666667,97.9004998423991,20.833333333333258
30,5050.204166666665,697.0930232558139,754.1666666666666,101.07938824480432,12.499999999999886
30,5055.204166666665,696.6085271317829,750.0,104.78883959846469,12.5
30,5060.204166666665,707.1428571428572,756.25,104.1820546125423,14.583333333333371
30,5065.204166666665,717.063492063492,758.3333333333333,102.86301934360898,12.500000000000114
30,5070.204166666665,713.5912698412699,756.25,99.29911700197823,14.583333333333371
30,5075.204166666665,696.9246031746031,747.9166666666667,110.74955389916059,22.91666666666663
30,5080.204166666665,691.4728682170543,745.8333333333334,115.54861622688445,33.33333333333326
30,5085.204166666665,684.8484848484849,745.8333333333334,116.53540133836063,31.25
30,5090.204166666665,671.9444444444443,737.5,120.51748165240754,37.5
30,5095.204166666665,676.7045454545456,739.5833333333334,118.02338961262812,35.41666666666663
30,5100.204166666665,693.4108527131782,745.8333333333334,151.61234570930495,33.33333333333326
30,5105.204166666665,687.9734848484849,729.1666666666667,154.98868402129722,45.83333333333326
30,5110.204166666665,702.422480620155,750.0,148.50231301013932,29.16666666666663
30,5115.204166666665,711.9047619047619,758.3333333333333,148.08674645428667,20.83333333333337
30,5120.204166666665,693.2170542635658,741.6666666666667,159.0211232469922,33.33333333333326
30,5125.204166666665,690.9883720930234,737.5,156.97498534987574,37.5
30,5130.204166666665,672.4074074074075,716.6666666666666,130.51982102829064,58.33333333333326
30,5135.204166666665,674.351851851852,737.5,132.15911563808294,41.66666666666663
30,5140.204166666665,672.6325757575758,731.25,133.1527293283097,43.75
30,5145.204166666665,665.2777777777778,720.8333333333334,134.70237019204055,50.0
30,5150.204166666665,695.7364341085271,754.1666666666666,120.60901582863107,29.166666666666742
30,5155.204166666665,708.4302325581396,762.5,117.44879686202054,20.83333333333337
30,5160.204166666665,719.2073170731708,758.3333333333333,127.4342084092797,25.000000000000114
30,5165.204166666665,734.6875,760.4166666666666,113.82132989422013,14.583333333333314
30,5170.204166666665,742.1875,758.3333333333333,134.78505726936282,25.000000000000114
30,5175.204166666665,759.508547008547,758.3333333333333,143.83324159252805,25.000000000000114
30,5180.204166666665,734.2479674796748,733.3333333333333,157.77178984018877,45.83333333333337
30,5185.204166666665,736.0772357723577,720.8333333333334,170.57299715290102,50.000000000000114
30,5190.204166666665,718.6507936507936,720.8333333333333,165.87269749546638,45.83333333333337
30,5195.204166666665,712.7906976744187,712.5,163.8814785506145,37.5
30,5200.204166666665,693.1818181818181,712.5,163.3736970303722,37.5
30,5205.204166666665,676.6666666666666,704.1666666666667,149.29178348509876,37.500000000000114
30,5210.204166666665,695.3488372093022,712.5,163.49716764513323,41.66666666666663
30,5215.204166666665,685.2713178294574,700.0,158.38122927725814,54.16666666666663
30,5220.204166666665,686.1742424242425,681.25,149.35469702245237,66.66666666666663
30,5225.204166666665,701.2896825396825,693.75,150.4805088690567,85.41666666666663
30,5230.204166666665,711.7063492063492,706.25,145.1077714133809,77.08333333333337
30,5235.204166666665,722.0528455284554,745.8333333333334,140.23245799893388,62.5
30,5240.204166666665,728.8617886178862,750.0,151.23160541239307,66.66666666666663
30,5245.204166666665,716.3690476190475,750.0,151.25769274582038,39.583333333333314
30,5250.204166666665,729.6747967479675,754.1666666666666,149.90504842519624,29.166666666666742
30,5255.204166666665,720.6349206349206,741.6666666666667,146.62806789807334,29.16666666666663
30,5260.204166666665,700.6782945736435,741.6666666666667,143.5303711907871,29.16666666666663
30,5265.204166666665,704.2635658914729,725.0,155.06625240734655,33.33333333333326
30,5270.204166666665,696.0227272727274,720.8333333333333,136.8980674326983,33.33333333333337
30,5275.204166666665,717.5595238095239,733.3333333333333,137.07447000495384,27.083333333333258
30,5280.204166666665,716.170634920635,729.1666666666666,140.6924969931096,29.16666666666663
30,5285.204166666665,718.6507936507936,731.25,156.04149528695012,35.41666666666674
30,5290.204166666665,741.4583333333334,739.5833333333334,142.21534647174957,29.166666666666686
30,5295.204166666665,735.7723577235772,741.6666666666667,128.64469672155144,25.0
30,5300.204166666665,726.219512195122,741.6666666666667,115.05676400407509,25.0
30,5305.204166666665,704.7480620155039,741.6666666666667,113.92607816403289,20.83333333333337
30,5310.204166666665,713.3928571428571,739.5833333333334,138.00116757208335,22.916666666666686
30,5315.204166666665,688.0813953488372,733.3333333333333,135.67689098057485,29.166666666666742
30,5320.204166666665,689.0151515151516,727.0833333333333,152.83467879240817,35.41666666666674
30,5325.204166666665,700.5952380952381,718.75,161.12370957456667,41.66666666666663
30,5330.204166666665,709.1269841269841,729.1666666666666,157.8035587575145,33.33333333333337
30,5335.204166666665,713.8888888888889,727.0833333333333,155.03536473326503,37.5
30,5340.204166666665,705.232558139535,729.1666666666666,133.87196826921485,33.33333333333337
30,5345.204166666665,728.150406504065,729.1666666666666,116.77368784722755,33.33333333333337
30,5350.204166666665,720.1219512195121,729.1666666666666,98.20835295142106,29.16666666666663
30,5355.204166666665,717.1626984126984,722.9166666666667,97.62683007938217,33.333333333333314
30,5360.204166666665,709.2261904761904,718.75,109.27721902639037,31.25
30,5365.204166666665,708.5317460317461,722.9166666666667,116.42670000641516,39.58333333333337
30,5370.204166666665,703.8690476190476,718.75,116.11145785235539,39.58333333333326
30,5375.204166666665,692.0454545454545,718.75,126.64874599686836,37.49999999999994
30,5380.204166666665,691.6666666666666,722.9166666666667,127.08849589208967,37.5
30,5385.204166666665,686.5530303030303,735.4166666666666,115.66521888113455,35.41666666666674
30,5390.204166666665,683.9962121212121,735.4166666666666,115.86429226920775,35.416666666666686
30,5395.204166666665,683.8068181818181,735.4166666666666,110.3392697481514,33.33333333333337
30,5400.204166666665,708.1395348837209,737.5,134.0690068023318,29.166666666666742
30,5405.204166666665,709.0277777777779,737.5,134.35179076261002,27.083333333333314
30,5410.204166666665,720.2380952380952,737.5,138.73268413084168,31.25
30,5415.204166666665,716.765873015873,737.5,146.091490710073,39.583333333333314
30,5420.204166666665,731.6056910569106,741.6666666666667,139.0879755371556,41.66666666666663
30,5425.204166666665,744.7916666666667,745.8333333333334,130.4535084905457,35.416666666666686
30,5430.204166666665,721.3414634146342,745.8333333333334,114.53103019135807,37.5
30,5435.204166666665,722.3214285714286,745.8333333333334,115.49139970125691,39.583333333333314
30,5440.204166666665,714.484126984127,747.9166666666667,110.84196011125921,35.416666666666686
30,5445.204166666665,721.849593495935,745.8333333333334,118.22170676834062,33.33333333333337
30,5450.204166666665,709.2054263565892,745.8333333333334,129.36990583590583,33.33333333333326
30,5455.204166666665,700.1937984496124,754.1666666666666,134.82840324061337,33.33333333333337
30,5460.204166666665,708.1395348837209,737.5,161.74006650816065,45.83333333333337
30,5465.204166666665,723.3739837398375,737.5,165.4378608609077,50.0
30,5470.204166666665,711.4087301587302,708.3333333333334,162.81645110735494,68.74999999999994
30,5475.204166666665,715.3769841269841,708.3333333333334,157.81764570144782,68.74999999999994
30,5480.204166666665,722.3577235772358,708.3333333333334,150.3778692391622,58.33333333333337
30,5485.204166666665,718.4523809523808,706.25,150.20351724613104,81.25
30,5490.204166666665,722.6626016260162,720.8333333333334,114.51152591069452,66.66666666666663
30,5495.204166666665,717.7579365079365,741.6666666666667,105.30901876914689,45.83333333333326
30,5500.204166666665,726.1178861788618,762.5,106.68629535479786,29.166666666666742
30,5505.204166666665,708.2364341085271,750.0,100.64478128913728,37.5
30,5510.204166666665,692.34496124031,745.8333333333334,114.68314639877013,41.66666666666663
30,5515.204166666665,680.1136363636364,733.3333333333333,117.71697638009317,54.16666666666674
30,5520.204166666665,663.6111111111111,708.3333333333334,115.3859629874685,79.16666666666663
30,5525.204166666665,659.7826086956521,675.0,115.17973538738347,81.25
30,5530.204166666665,670.2777777777777,691.6666666666666,116.94231505535132,91.66666666666674
30,5535.204166666665,677.7462121212121,700.0,115.04950338098968,85.41666666666669
30,5540.204166666665,689.2992424242425,700.0,108.51355658735466,83.33333333333337
30,5545.204166666665,712.2023809523808,722.9166666666667,104.7216631942039,56.25000000000006
30,5550.204166666665,728.2520325203252,737.5,117.1326712295792,58.33333333333326
30,5555.204166666665,748.5416666666667,762.5,114.96217481492178,37.5
30,5560.204166666665,736.6869918699188,750.0,120.78023083225001,37.5
30,5565.204166666665,751.1458333333334,762.5,131.6466077304048,37.5
30,5570.204166666665,750.7291666666667,762.5,136.65691901604274,35.416666666666686
30,5575.204166666665,747.9166666666667,762.5,137.04112760507576,33.333333333333314
30,5580.204166666665,733.739837398374,750.0,133.99511832308423,33.33333333333337
30,5585.204166666665,722.7642276422765,750.0,131.1179810938403,41.66666666666663
30,5590.204166666665,734.8958333333333,775.0,127.36259948892179,33.333333333333314
30,5595.204166666665,714.186507936508,772.9166666666667,129.57762948459438,29.166666666666686
30,5600.204166666665,706.4922480620155,770.8333333333334,133.9652138053206,29.16666666666663
30,5605.204166666665,701.937984496124,762.5,133.8449659064043,37.5
30,5610.204166666665,692.2348484848485,762.5,134.82268630255436,35.416666666666686
30,5615.204166666665,673.7037037037037,750.0,140.03297721677222,50.0
30,5620.204166666665,670.6481481481482,741.6666666666667,138.21255782008186,49.999999999999886
30,5625.204166666665,675.9469696969695,752.0833333333333,134.89535504348967,43.74999999999994
30,5630.204166666665,669.7916666666666,731.25,133.64524140086547,47.91666666666663
30,5635.204166666665,668.6111111111111,725.0,135.28285929932892,54.16666666666663
30,5640.204166666665,673.4848484848484,731.25,134.93793107621354,52.083333333333314
30,5645.204166666665,685.6589147286821,750.0,129.1580332674832,41.66666666666663
30,5650.204166666665,670.7407407407408,737.5,137.62187232363564,54.16666666666663
30,5655.204166666665,670.5555555555557,733.3333333333333,136.9202654500388,58.33333333333337
30,5660.204166666665,680.3030303030304,739.5833333333334,135.06435576169628,49.99999999999994
30,5665.204166666665,689.2441860465116,750.0,135.56915272442913,41.66666666666663
30,5670.204166666665,700.6782945736434,766.6666666666667,129.87176416035476,33.33333333333326
30,5675.204166666665,698.3527131782946,766.6666666666667,133.8751995700612,33.33333333333326
30,5680.204166666665,706.7460317460318,768.75,124.7760608581337,29.16666666666663
30,5685.204166666665,718.452380952381,768.75,135.52612167194712,31.25
30,5690.204166666665,720.6349206349206,768.75,128.70509050780498,37.5
30,5695.204166666665,726.0162601626016,770.8333333333334,122.45244431160279,29.16666666666663
30,5700.204166666665,722.9166666666666,764.5833333333334,123.85399465447175,27.083333333333258
30,5705.204166666665,726.2896825396825,758.3333333333333,115.9767934192909,27.083333333333428
30,5710.204166666665,719.7420634920635,758.3333333333333,123.4801214067674,31.25
30,5715.204166666665,699.8062015503875,758.3333333333333,117.65438428090665,29.166666666666742
30,5720.204166666665,701.937984496124,758.3333333333333,117.00047496430419,20.83333333333337
30,5725.204166666665,687.8787878787879,745.8333333333334,126.56583279281158,33.33333333333326
30,5730.204166666665,691.8604651162791,733.3333333333333,143.51891792336966,37.500000000000114
30,5735.204166666665,700.0992063492064,739.5833333333334,140.89786638818308,35.41666666666663
30,5740.204166666665,709.0277777777778,745.8333333333334,135.977704795475,33.33333333333326
30,5745.204166666665,723.5772357723578,745.8333333333334,123.13402306227697,25.0
30,5750.204166666665,717.6829268292682,750.0,130.87506131208397,25.0
30,5755.204166666665,719.047619047619,752.0833333333333,128.60368675207303,27.08333333333337
30,5760.204166666665,725.2032520325203,766.6666666666667,104.9510104776081,20.833333333333258
30,5765.204166666665,714.5348837209301,770.8333333333334,118.16418470841161,20.833333333333258
30,5770.204166666665,703.8759689922482,758.3333333333333,122.38803917715425,29.166666666666742
30,5775.204166666665,704.9418604651163,762.5,122.81575698440336,29.16666666666663
30,5780.204166666665,705.813953488372,762.5,121.82522397882079,25.0
30,5785.204166666665,721.849593495935,770.8333333333334,112.62254316519979,20.833333333333258
30,5790.204166666665,712.4007936507936,760.4166666666666,114.63639974151411,29.166666666666686
30,5795.204166666665,729.979674796748,770.8333333333334,101.94812266759577,24.999999999999886
30,5800.204166666665,733.6382113821138,775.0,99.74964426585846,20.833333333333258
30,5805.204166666665,725.6097560975611,775.0,109.1816186309924,20.83333333333337
30,5810.204166666665,738.109756097561,783.3333333333334,101.99214028647894,16.66666666666663
30,5815.204166666665,729.1666666666667,783.3333333333334,110.38521564654087,16.66666666666663
30,5820.204166666665,738.9227642276423,783.3333333333334,104.87099282214007,12.5
30,5825.204166666665,711.6071428571429,772.9166666666667,124.62863437429127,24.999999999999886
30,5830.204166666665,718.6507936507936,772.9166666666667,121.60093340420873,22.916666666666515
30,5835.204166666665,722.4206349206349,775.0,122.33594865558683,20.833333333333258
30,5840.204166666665,711.7063492063493,772.9166666666667,127.99011124532444,24.999999999999886
30,5845.204166666665,701.1627906976744,770.8333333333334,130.66313613008577,24.999999999999886
30,5850.204166666665,677.5568181818181,731.25,138.19625197869303,60.41666666666663
30,5855.204166666665,695.2519379844961,762.5,134.0431915904842,37.5
30,5860.204166666665,694.4767441860464,758.3333333333333,132.29294284546484,37.5
30,5865.204166666665,685.8527131782946,745.8333333333334,135.7912692162992,49.999999999999886
30,5870.204166666665,691.8604651162791,758.3333333333333,130.8516362196737,33.33333333333326
30,5875.204166666665,694.2829457364342,750.0,130.4880669952355,33.33333333333337
30,5880.204166666665,722.3214285714286,772.9166666666667,120.38858939470133,29.166666666666686
30,5885.204166666665,714.5833333333334,760.4166666666666,118.99267387664825,27.08333333333337
30,5890.204166666665,701.0658914728683,754.1666666666666,127.54386702330216,37.5
30,5895.204166666665,701.0658914728683,754.1666666666666,127.06981135209386,37.5
30,5900.204166666665,685.0378787878789,741.6666666666667,133.86316176248627,54.166666666666515
30,5905.204166666665,684.564393939394,741.6666666666667,134.75076148509433,52.0833333333332
30,5910.204166666665,672.7272727272729,741.6666666666667,135.08853968470495,47.91666666666657
30,5915.204166666665,685.9848484848484,747.9166666666667,133.91675563390635,43.749999999999886
30,5920.204166666665,692.6356589147285,758.3333333333333,133.4381941616776,33.33333333333337
30,5925.204166666665,697.1899224806201,758.3333333333333,128.49196844249315,33.33333333333326
30,5930.204166666665,699.3217054263566,762.5,129.46052796403225,33.33333333333326
30,5935.204166666665,683.0492424242425,745.8333333333333,136.84037731043358,39.583333333333314
30,5940.204166666665,687.3106060606061,733.3333333333333,147.10534550312283,50.000000000000114
30,5945.204166666665,671.5909090909091,722.9166666666667,152.38010686994866,62.49999999999994
30,5950.204166666665,672.7272727272727,725.0,152.92807116254016,66.66666666666663
30,5955.204166666665,673.7962962962963,725.0,148.54519212055447,66.66666666666663
30,5960.204166666665,688.2751937984495,737.5,146.04931799000346,58.33333333333326
30,5965.204166666665,714.6825396825398,762.5,133.82543238999196,33.33333333333326
30,5970.204166666665,691.8604651162791,745.8333333333334,130.5226871673541,45.83333333333326
30,5975.204166666665,682.9545454545455,737.5,132.5766384748747,50.0
30,5980.204166666665,680.925925925926,737.5,128.42986607265007,45.83333333333337
30,5985.204166666665,682.4612403100775,737.5,135.91425108171052,50.0
30,5990.204166666665,669.2592592592591,725.0,138.66952373384046,62.5
30,5995.204166666665,667.4074074074075,725.0,137.74166346089402,62.5
30,6000.204166666665,681.1553030303031,743.75,139.58655450513152,52.08333333333326
30,6005.204166666665,687.5000000000001,745.8333333333334,134.4700815883491,50.0
30,6010.204166666665,689.7286821705426,750.0,138.1608363373222,50.0
30,6015.204166666665,680.3703703703704,741.6666666666667,137.03324768398107,45.833333333333485
30,6020.204166666665,708.0426356589147,754.1666666666666,142.2821461665364,33.33333333333337
30,6025.204166666665,708.9285714285716,752.0833333333333,144.07203361888156,37.5
30,6030.204166666665,722.5198412698412,754.1666666666666,133.15873834158296,33.33333333333337
30,6035.204166666665,719.8412698412698,758.3333333333333,134.93326641469866,31.25
30,6040.204166666665,719.5436507936507,758.3333333333333,134.97932221206702,31.25
30,6045.204166666665,722.0528455284554,775.0,137.62697389352653,20.833333333333258
30,6050.204166666665,695.9302325581396,741.6666666666667,128.9472290270487,45.83333333333326
30,6055.204166666665,681.9444444444445,737.5,133.04597348513056,45.83333333333337
30,6060.204166666665,670.6439393939393,733.3333333333333,135.62396043688366,45.83333333333337
30,6065.204166666665,673.6742424242424,733.3333333333333,136.9211232721991,50.0
30,6070.204166666665,685.3682170542635,750.0,130.33703034449016,33.33333333333337
30,6075.204166666665,678.7878787878788,737.5,132.9324708770723,41.66666666666663
30,6080.204166666665,685.9848484848485,747.9166666666667,129.36840618796674,35.41666666666663
30,6085.204166666665,682.1969696969697,741.6666666666667,128.0013185934549,37.499999999999886
30,6090.204166666665,674.537037037037,737.5,129.84068466802586,41.66666666666663
30,6095.204166666665,674.715909090909,735.4166666666666,130.5499131310863,41.666666666666686
30,6100.204166666665,661.7753623188406,718.75,133.23869427122278,60.41666666666663
30,6105.204166666665,661.5942028985507,716.6666666666666,129.1888064761542,60.416666666666686
30,6110.204166666665,658.8888888888888,712.5,131.775343526838,58.33333333333337
30,6115.204166666665,679.1666666666667,720.8333333333334,129.33066607974496,66.66666666666669
30,6120.204166666665,697.6744186046511,750.0,124.54381813999997,45.83333333333326
30,6125.204166666665,697.0930232558139,750.0,124.87604596129722,41.66666666666663
30,6130.204166666665,717.6587301587302,777.0833333333333,117.40766972853734,22.916666666666742
30,6135.204166666665,731.0975609756098,783.3333333333334,110.36200518451487,16.66666666666663
30,6140.204166666665,731.7073170731708,787.5,111.4218322193723,12.5
30,6145.204166666665,729.6747967479674,783.3333333333334,113.93450818111054,8.333333333333371
30,6150.204166666665,706.7460317460317,775.0,121.84692759506369,16.66666666666663
30,6155.204166666665,710.077519379845,775.0,121.58099478172035,16.66666666666663
30,6160.204166666665,700.9920634920635,768.75,127.14224452155787,31.25
30,6165.204166666665,688.953488372093,758.3333333333333,133.26785259950478,33.33333333333337
30,6170.204166666665,687.594696969697,741.6666666666667,134.8792665109481,45.83333333333326
30,6175.204166666665,685.7954545454545,741.6666666666667,133.73340590453586,45.83333333333326
30,6180.204166666665,699.9031007751938,758.3333333333333,135.94140813299944,41.66666666666674
30,6185.204166666665,697.577519379845,758.3333333333333,134.53769238791443,41.66666666666674
30,6190.204166666665,695.8333333333334,762.5,132.8753033984494,33.33333333333337
30,6195.204166666665,711.1111111111111,770.8333333333334,126.20579220999807,31.25
30,6200.204166666665,718.2926829268292,775.0,121.38122212274368,25.0
30,6205.204166666665,716.7682926829268,775.0,122.79474109966769,25.0
30,6210.204166666665,715.6746031746032,766.6666666666667,121.04099594642796,33.33333333333326
30,6215.204166666665,710.7142857142857,756.25,134.26107260669053,45.833333333333314
30,6220.204166666665,728.760162601626,750.0,145.46025158088,58.33333333333337
30,6225.204166666665,714.0503875968992,729.1666666666666,142.96216493078873,62.5
30,6230.204166666665,699.515503875969,687.5,138.51301112625205,70.83333333333326
30,6235.204166666665,703.1007751937984,679.1666666666667,141.13196542970493,50.000000000000114
30,6240.204166666665,705.6201550387597,670.8333333333333,146.74849956229505,33.333333333333485
30,6245.204166666665,712.6984126984128,668.75,131.34297062415777,27.083333333333258
30,6250.204166666665,684.7537878787879,654.1666666666666,119.54148776880683,25.000000000000057
30,6255.204166666665,691.8604651162791,654.1666666666666,120.57976092070285,25.0
30,6260.204166666665,708.3333333333334,658.3333333333334,140.35044479622198,37.5
30,6265.204166666665,699.2248062015503,654.1666666666666,138.56685626698584,75.0
30,6270.204166666665,701.7441860465116,675.0,148.32406047722446,83.33333333333326
30,6275.204166666665,683.3333333333333,672.9166666666666,151.2143993594638,87.49999999999994
30,6280.204166666665,685.3682170542637,683.3333333333334,146.03266449006594,58.33333333333337
30,6285.204166666665,701.3888888888888,697.9166666666666,156.00737712156592,60.41666666666663
30,6290.204166666665,680.1136363636364,691.6666666666666,160.7723797929819,56.25
30,6295.204166666665,678.5984848484849,691.6666666666666,156.39261168577943,50.000000000000114
30,6300.204166666665,677.2727272727274,693.75,144.60712207805153,47.91666666666674
30,6305.204166666665,709.4246031746031,706.25,149.6949798593665,33.33333333333337
30,6310.204166666665,723.2142857142857,712.5,160.7542321414101,41.66666666666663
30,6315.204166666665,712.8875968992248,708.3333333333334,148.28665986289516,33.33333333333337
30,6320.204166666665,738.9583333333334,720.8333333333334,132.58856498243944,31.249999999999943
30,6325.204166666665,741.3617886178862,720.8333333333334,152.70532126378706,33.33333333333337
30,6330.204166666665,740.9375,725.0,152.326121916404,39.58333333333337
30,6335.204166666665,726.2896825396825,718.75,140.49759162130601,39.58333333333326
30,6340.204166666665,719.7154471544716,716.6666666666666,142.3422140277049,37.499999999999886
30,6345.204166666665,737.3958333333334,714.5833333333333,168.03256403086377,37.5
30,6350.204166666665,716.9642857142857,706.25,164.1280051694825,27.083333333333258
30,6355.204166666665,713.2936507936508,706.25,146.5451215210905,27.083333333333258
30,6360.204166666665,714.5833333333334,708.3333333333334,147.03842965955522,25.0
30,6365.204166666665,726.9308943089432,708.3333333333334,166.76064423635648,29.16666666666663
30,6370.204166666665,737.1951219512196,704.1666666666667,165.43395754482535,29.166666666666742
30,6375.204166666665,731.9105691056911,704.1666666666667,157.67849716697165,29.166666666666742
30,6380.204166666665,751.9791666666667,702.0833333333334,152.6125393330473,27.08333333333337
30,6385.204166666665,753.9529914529913,695.8333333333333,148.69359439042938,20.83333333333337
30,6390.204166666665,778.7393162393163,695.8333333333333,164.9217730336804,41.66666666666663
30,6395.204166666665,770.8333333333334,691.6666666666666,178.76331586602214,45.83333333333337
30,6400.204166666665,778.7393162393162,704.1666666666667,179.31652971424566,50.000000000000114
30,6405.204166666665,754.5833333333334,704.1666666666667,175.52779586865188,45.83333333333343
30,6410.204166666665,759.4791666666667,716.6666666666667,174.90582401864447,39.58333333333337
30,6415.204166666665,778.5256410256411,729.1666666666666,178.5780274791263,33.33333333333337
30,6420.204166666665,759.508547008547,733.3333333333333,164.69765826652343,16.66666666666663
30,6425.204166666665,767.8418803418803,733.3333333333333,156.04869698737951,16.66666666666663
30,6430.204166666665,752.6041666666666,731.25,138.31404812281235,14.583333333333371
30,6435.204166666665,778.9529914529915,733.3333333333333,142.31324557660366,16.66666666666663
30,6440.204166666665,760.5769230769231,725.0,142.19087146200877,12.5
30,6445.204166666665,754.8958333333333,725.0,143.64780989293584,18.749999999999943
30,6450.204166666665,726.3888888888889,718.75,145.65368338386835,18.75
30,6455.204166666665,708.1349206349207,718.75,144.58950509587092,25.000000000000057
30,6460.204166666665,706.9444444444445,716.6666666666666,158.51953820514765,29.166666666666742
30,6465.204166666665,693.217054263566,716.6666666666666,138.0251613002593,29.166666666666742
30,6470.204166666665,697.6744186046512,716.6666666666666,151.0279545652718,33.33333333333337
30,6475.204166666665,697.7182539682539,706.25,156.13363520871945,50.0
30,6480.204166666665,732.1138211382114,708.3333333333334,170.22055724781333,58.33333333333337
30,6485.204166666665,736.7886178861789,712.5,153.80843074164912,37.5
30,6490.204166666665,730.081300813008,704.1666666666667,140.31373636897118,37.500000000000114
30,6495.204166666665,734.4791666666667,695.8333333333333,152.39945631198307,27.083333333333314
30,6500.204166666665,738.0081300813008,691.6666666666666,154.3894649148502,25.0
30,6505.204166666665,722.3214285714286,695.8333333333333,145.27279447360254,20.83333333333337
30,6510.204166666665,703.4722222222222,693.75,136.82520012204338,22.91666666666663
30,6515.204166666665,698.7403100775193,687.5,128.0240516751012,20.83333333333337
30,6520.204166666665,691.0984848484849,689.5833333333333,133.92730739808658,33.33333333333337
30,6525.204166666665,674.9999999999999,683.3333333333334,129.82177468290206,45.83333333333326
30,6530.204166666665,665.7407407407408,691.6666666666666,110.93854971365971,58.33333333333337
30,6535.204166666665,674.8148148148148,691.6666666666666,113.38371887015366,70.83333333333326
30,6540.204166666665,674.7222222222222,695.8333333333333,96.7405999922922,70.83333333333326
30,6545.204166666665,682.6704545454545,729.1666666666666,106.75634849494726,47.916666666666686
30,6550.204166666665,705.3571428571429,756.25,106.48153758968823,37.49999999999994
30,6555.204166666665,721.2301587301587,766.6666666666667,103.20412819454926,24.999999999999886
30,6560.204166666665,727.9471544715448,770.8333333333334,104.24681875657984,20.833333333333258
30,6565.204166666665,729.0650406504066,775.0,104.33106945126904,20.83333333333337
30,6570.204166666665,730.9959349593496,779.1666666666666,108.24535201597493,20.83333333333337
30,6575.204166666665,734.2479674796748,779.1666666666666,108.95061395186264,12.5
30,6580.204166666665,733.5365853658536,779.1666666666666,109.22291497587197,16.66666666666663
30,6585.204166666665,736.4837398373984,779.1666666666666,97.20387941559603,20.83333333333337
30,6590.204166666665,721.4285714285716,772.9166666666667,109.76065450599411,27.083333333333258
30,6595.204166666665,707.4404761904761,752.0833333333334,119.1785901217125,35.41666666666663
30,6600.204166666665,705.1587301587302,739.5833333333334,117.98331350703307,39.58333333333326
30,6605.204166666665,702.7777777777778,737.5,118.0115093984347,45.83333333333337
30,6610.204166666665,691.5697674418604,729.1666666666666,120.31047375842378,41.66666666666674
30,6615.204166666665,680.3030303030303,729.1666666666666,126.14579396187955,50.00000000000006
30,6620.204166666665,705.952380952381,745.8333333333333,118.36432827623761,47.916666666666686
30,6625.204166666665,696.9961240310078,754.1666666666666,127.97170491851489,45.83333333333337
30,6630.204166666665,694.0891472868217,737.5,129.80587025819892,62.5
30,6635.204166666665,697.7713178294573,762.5,130.90026102968613,41.66666666666674
30,6640.204166666665,701.7441860465116,775.0,131.20899636067318,33.33333333333337
30,6645.204166666665,707.8252032520325,775.0,131.25395206335435,33.33333333333337
30,6650.204166666665,715.3769841269841,772.9166666666667,143.60665969718067,33.333333333333314
30,6655.204166666665,735.5691056910568,770.8333333333334,119.17721967031653,29.16666666666663
30,6660.204166666665,743.089430894309,770.8333333333334,124.54294829027731,29.16666666666663
30,6665.204166666665,746.4583333333334,766.6666666666667,116.34016431099293,25.0
30,6670.204166666665,746.25,766.6666666666667,116.34494713414384,29.166666666666515
30,6675.204166666665,736.9047619047619,752.0833333333333,121.23241996911531,27.08333333333337
30,6680.204166666665,713.2936507936507,741.6666666666667,119.14910501970644,37.49999999999994
30,6685.204166666665,720.0396825396825,754.1666666666666,127.61239697279952,35.41666666666663
30,6690.204166666665,713.3928571428571,747.9166666666667,118.31206050302869,29.166666666666572
30,6695.204166666665,693.3712121212121,741.6666666666667,132.27938028711273,41.66666666666657
30,6700.204166666665,692.3295454545455,741.6666666666667,131.37473518431855,33.333333333333314
30,6705.204166666665,691.6666666666667,741.6666666666667,132.40312920901314,37.499999999999886
30,6710.204166666665,695.4457364341084,741.6666666666667,145.72789258916478,33.33333333333326
30,6715.204166666665,701.1904761904761,741.6666666666667,143.6502856534974,35.41666666666663
30,6720.204166666665,700.7751937984495,741.6666666666667,148.74156809377783,45.83333333333326
30,6725.204166666665,716.6666666666666,764.5833333333334,139.40081806029963,39.58333333333337
30,6730.204166666665,711.6071428571429,754.1666666666667,145.7143408684508,50.0
30,6735.204166666665,719.4444444444443,768.75,141.1806184573634,39.58333333333337
30,6740.204166666665,719.4444444444445,772.9166666666667,121.26418374093778,35.41666666666663
30,6745.204166666665,702.7131782945736,745.8333333333334,128.72390743761292,58.33333333333337
30,6750.204166666665,710.4166666666666,754.1666666666666,119.51109330419595,43.75
30,6755.204166666665,706.1507936507936,754.1666666666666,126.87695856431502,43.75
30,6760.204166666665,706.25,754.1666666666666,127.3832759185437,41.66666666666663
30,6765.204166666665,716.4682539682539,758.3333333333333,122.72645259046928,39.58333333333337
30,6770.204166666665,716.9642857142857,766.6666666666667,129.1466443212918,37.49999999999994
30,6775.204166666665,726.3888888888889,770.8333333333334,123.95452585758271,31.25
30,6780.204166666665,722.1544715447155,770.8333333333334,131.7696031707738,33.33333333333337
30,6785.204166666665,731.5040650406504,775.0,127.4824633245081,29.166666666666742
30,6790.204166666665,733.4349593495936,770.8333333333334,118.98546758865125,33.33333333333337
30,6795.204166666665,728.4552845528456,775.0,126.74100901921474,37.5
30,6800.204166666665,743.3333333333334,795.8333333333333,114.74609652039004,20.833333333333258
30,6805.204166666665,743.75,795.8333333333333,113.37700264755956,20.83333333333337
30,6810.204166666665,741.3617886178862,795.8333333333333,118.4440145668867,24.999999999999886
30,6815.204166666665,729.1666666666667,770.8333333333334,123.54711202164495,29.16666666666663
30,6820.204166666665,732.8252032520325,787.5,124.26588290625685,29.16666666666663
30,6825.204166666665,740.1041666666666,791.6666666666666,118.753045769907,22.91666666666663
30,6830.204166666665,728.3536585365854,770.8333333333334,123.64620897231313,29.16666666666663
30,6835.204166666665,735.0609756097562,783.3333333333334,135.90928222376849,29.166666666666742
30,6840.204166666665,735.670731707317,783.3333333333334,135.83285014129228,33.33333333333337
30,6845.204166666665,735.4674796747967,787.5,136.4483837060343,29.16666666666663
30,6850.204166666665,723.2142857142857,770.8333333333334,140.94190160608426,39.58333333333337
30,6855.204166666665,722.1230158730158,770.8333333333334,140.33173076892257,37.50000000000006
30,6860.204166666665,715.1785714285714,770.8333333333334,145.26113478936557,39.58333333333343
30,6865.204166666665,691.1821705426356,750.0,140.52471968964684,45.83333333333326
30,6870.204166666665,680.3030303030303,737.5,139.56883714024858,54.16666666666663
30,6875.204166666665,672.5925925925926,737.5,140.02640243263664,45.83333333333337
30,6880.204166666665,672.6325757575756,737.5,140.9936067032675,50.0
30,6885.204166666665,651.3586956521739,731.25,143.05435368380265,50.0
30,6890.204166666665,662.1296296296297,733.3333333333333,139.45415274667891,37.500000000000114
