t_start_s,t_end_s,hr_bpm_mean,hr_bpm_median,hr_bpm_min,hr_bpm_max,pct_time_hr_lt_50,sdnn_ms,rmssd_ms,pnn50_pct,pnn20_pct,triangular_index,num_beats_used,vlf_power_ms2,lf_power_ms2,hf_power_ms2,total_power_ms2,lf_nu,hf_nu,lf_hf_ratio,hf_peak_hz,resp_rate_bpm_from_hf_peak,sd1_ms,sd2_ms,sd1_sd2_ratio,sampen_m2_r02,dfa_scales_beats,dfa_Fn,dfa_alpha1,dfa_alpha2
0.0,300.0,83.66427218888708,80.89887640449437,73.09644670050763,118.03278688524591,0.0,59.21527099640851,51.81240810047275,16.911764705882355,37.86764705882353,8.806451612903226,273,29821789.36726837,4080540.324724667,967300.2543648628,40920775.72298855,36.764981899645655,8.715212573140397,4.218483667621883,0.15625,9.375,2154.2094355698055,2169.0584373920383,0.9931541716137042,0.03011694583521978,"[4, 5, 6, 7, 8, 9, 10, 11, 12, 13, 14, 15, 16, 17, 18, 19, 20, 21, 22, 23, 24, 25, 26, 27, 28, 29, 30, 31, 32, 33, 34, 35, 36, 37, 38, 39, 40, 41, 42, 43, 44, 45, 46, 47, 48, 49, 50, 51, 52, 53, 54, 55, 56, 57, 58, 59, 60, 61, 62, 63, 64]","[155.59186699023064, 121.95713225907815, 250.36941752422058, 274.1680931648175, 327.48839355846155, 359.98158571286797, 251.14829474536523, 453.3993164450061, 475.2713441635844, 322.5993911215344, 516.9450519042365, 596.8466401597788, 568.8649901303824, 665.7288615906075, 714.7863869519169, 774.7046649102203, 767.2694131122281, 829.1878155627119, 804.7661508155131, 883.8554960110237, 926.588907583587, 915.1068105374444, 553.0571131242685, 1046.9648030501378, 898.7845727628556, 1044.089179830982, 1131.690315415646, 1216.7817443264437, 849.1974221963178, 1185.0549908158891, 1261.1823837418674, 1255.957462153925, 1395.2281846746644, 1082.2877851901076, 1356.7796056124232, 1418.833924137039, 1539.7020470211332, 1520.3954958752856, 1491.5788649927558, 1256.1436051762216, 1246.3277757666096, 1482.0413792492716, 1791.6403709144454, 1807.067397269162, 1735.2721088617543, 1663.4393772263631, 1643.9645215151736, 1907.146443648834, 1940.5833386381719, 1966.3484029397923, 1944.0611241133768, 1761.5609251974536, 1507.827893054845, 1919.7594997697477, 2045.1880702444232, 2449.4384474863405, 2407.3357460704306, 2321.458806627931, 2205.1321776006653, 2057.6975159184026, 1835.2692526685328]",1.0046119456379334,0.9390201192295772
60.0,360.0,86.03306366150659,85.20710059171597,73.09644670050763,118.03278688524591,0.0,57.30149920624222,61.147531766985935,22.529644268774703,53.359683794466406,13.368421052631579,254,25104592.04463736,3587941.1211160654,838918.4737095446,34499842.39545256,38.18888254323899,8.92917636448883,4.276865075161409,0.15625,9.375,2149.0051328119634,2164.706530619739,0.9927466390544494,0.044663337494921705,"[4, 5, 6, 7, 8, 9, 10, 11, 12, 13, 14, 15, 16, 17, 18, 19, 20, 21, 22, 23, 24, 25, 26, 27, 28, 29, 30, 31, 32, 33, 34, 35, 36, 37, 38, 39, 40, 41, 42, 43, 44, 45, 46, 47, 48, 49, 50, 51, 52, 53, 54, 55, 56, 57, 58, 59, 60, 61, 62, 63, 64]","[112.0098842257508, 230.1800828624016, 246.02892487463873, 300.1166492545349, 213.9118795735738, 391.1009582360222, 406.2613576264373, 449.6716309230119, 510.8063281354036, 501.61820557932583, 580.9000925067241, 619.2776007645797, 416.33277615050315, 436.7885990023059, 742.65310302187, 474.3043772131935, 810.5411866201677, 816.217263772651, 897.7862315823824, 953.1463912784685, 968.7772621084576, 864.0978001091042, 903.7863476746435, 1060.6067572561883, 1160.5853930759342, 1109.7879031819969, 1227.523100832969, 1222.1585864996987, 1143.104778508381, 1316.7985654371369, 1142.840543341882, 1287.8492377952864, 1364.9193889193773, 1457.4838364856666, 857.7140507679023, 1492.4413422818589, 1601.1848982709528, 1596.5856688404883, 1664.8726333261839, 1523.2862914106731, 1562.2844768766245, 1837.2971633608497, 1722.5764111122364, 1650.9866699709958, 1633.846971854325, 1589.7925916352917, 1327.1234929820582, 892.2759012244751, 1641.6365204119172, 1808.557376681694, 1835.6127347769414, 1851.2756788864692, 1918.2195783074812, 2006.1124176030337, 2088.1641264925524, 2098.0292280214617, 1392.8295582433334, 1861.7154175925261, 2386.5376352067747, 2514.2485761191783, 2517.230084066014]",1.0174863424049976,0.9546663604155828
120.0,420.0,87.17740042025142,86.22754491017965,71.2871287128713,118.03278688524591,0.0,55.45568531199418,68.00640704504947,29.629629629629626,64.44444444444444,12.904761904761905,271,2207.0544602667214,5956.8402276756005,10252.958806495886,19932.286579608586,33.60655695546839,57.843862001151486,0.5809874339787235,0.1875,11.25,1473.2215827912698,2524.391381386759,0.5835947601682765,0.05966951675825856,"[4, 5, 6, 7, 8, 9, 10, 11, 12, 13, 14, 15, 16, 17, 18, 19, 20, 21, 22, 23, 24, 25, 26, 27, 28, 29, 30, 31, 32, 33, 34, 35, 36, 37, 38, 39, 40, 41, 42, 43, 44, 45, 46, 47, 48, 49, 50, 51, 52, 53, 54, 55, 56, 57, 58, 59, 60, 61, 62, 63, 64]","[56.81645336661649, 67.76329318347271, 80.00428997855977, 95.29248374231246, 104.06378413762182, 107.2971725066283, 121.43879752054004, 134.82448142903664, 136.94244240649252, 149.3923500701791, 150.39151510261203, 156.4096196918771, 168.2136781856335, 173.7393236754552, 165.71249529217877, 173.24912818124213, 173.36232602785762, 191.66782749479532, 200.08416111873498, 199.61508791793153, 194.27033472829262, 210.67405450661627, 202.12208916761506, 211.8550342355329, 225.9333327198227, 221.8806019816323, 228.1178582725173, 241.90382869478722, 227.21917778043453, 243.10129939516654, 249.48031532879494, 266.2405320060013, 262.07904960259043, 246.94606676856898, 250.42784611003444, 244.08926055858885, 256.2789079140739, 274.9969684471394, 270.81830680999104, 283.4022564934576, 276.0727377344575, 268.55091956536177, 285.63676496509436, 282.62371136041367, 290.4775205652411, 275.10715088153876, 288.31979804970035, 300.1891248313623, 312.38981646623836, 308.2664416355372, 300.4409458486238, 305.51730394414966, 302.79294275957517, 305.45941608429297, 301.0614894628903, 298.78155691425843, 305.68567200595174, 321.9404827938417, 318.1061499114445, 315.12675585520304, 317.7347669689461]",0.7743313937861468,0.4900404891430514
180.0,480.0,86.84418737069697,86.74698795180723,58.77551020408164,118.03278688524591,0.0,58.28878687247374,65.2604179446136,23.624595469255663,54.36893203883495,14.761904761904763,310,563.5021930211601,4499.5752805802495,5878.20390478813,12158.44241376499,38.806368941258725,50.69628469728355,0.7654677097735739,0.1875,11.25,135.9759401541795,146.8870899399734,0.9257174351384262,1.1121075881446647,"[4, 5, 6, 7, 8, 9, 10, 11, 12, 13, 14, 15, 16, 17, 18, 19, 20, 21, 22, 23, 24, 25, 26, 27, 28, 29, 30, 31, 32, 33, 34, 35, 36, 37, 38, 39, 40, 41, 42, 43, 44, 45, 46, 47, 48, 49, 50, 51, 52, 53, 54, 55, 56, 57, 58, 59, 60, 61, 62, 63, 64]","[47.18220225573094, 63.99415039660789, 71.66585339592028, 82.76746809403815, 92.7124719378953, 100.76033384518188, 104.2158154010952, 116.17010303346638, 125.8250124606339, 127.04356700253598, 143.06807605188555, 145.80255269792238, 150.86110510358253, 156.41971011322474, 161.35748965928104, 168.73697582504127, 175.86339575415036, 179.1736254661369, 184.11587183388613, 193.14343780397263, 196.28515858171465, 195.65113668215832, 203.15367226110519, 207.5363157439869, 207.60655549020274, 210.0823074941038, 218.43067846166448, 224.2952535521069, 230.27827438635504, 231.2778676617173, 228.53498726568637, 220.95217820233003, 249.49708772691702, 253.1151307080434, 253.2611019225616, 247.26288717130438, 268.3824456647793, 279.83690618339205, 276.10992357558723, 276.5903646927065, 267.3924695243212, 288.07054424315174, 284.73540257990817, 285.27364320755237, 285.38600297940707, 284.85160570954, 298.6472694118457, 311.2780064918665, 310.03219094608454, 308.12339067108434, 308.8339793163702, 300.68838884921115, 283.92452688987, 296.3906504684048, 300.718092235851, 283.1519601302279, 307.66952110450495, 314.66036650599585, 324.8457328090446, 328.15105588031435, 332.8913534677765]",0.8016759483985565,0.5491090759087099
240.0,540.0,87.33533546307464,87.80487804878048,58.77551020408164,117.07317073170732,0.0,60.90943415007077,75.29358375155762,21.262458471760798,47.50830564784053,8.628571428571428,302,809.5360372543342,3775.362770530625,6333.927491366914,12416.407867663283,32.52696183513906,54.57049568491487,0.5960539926730153,0.171875,10.3125,139.604240156708,150.8724832254651,0.9253128017259599,1.0632226273621055,"[4, 5, 6, 7, 8, 9, 10, 11, 12, 13, 14, 15, 16, 17, 18, 19, 20, 21, 22, 23, 24, 25, 26, 27, 28, 29, 30, 31, 32, 33, 34, 35, 36, 37, 38, 39, 40, 41, 42, 43, 44, 45, 46, 47, 48, 49, 50, 51, 52, 53, 54, 55, 56, 57, 58, 59, 60, 61, 62, 63, 64]","[50.51500664265247, 62.373042751462584, 76.39604423182284, 87.1439459674281, 98.03395217247134, 105.31278198550726, 114.57734304142828, 115.10193393415426, 127.10672993371102, 133.27463469346227, 143.99104325958604, 135.4607503369563, 143.1651748254106, 146.31021599159766, 163.2381874853941, 163.98695491577132, 173.2036552757115, 174.02878464902165, 182.12666318899196, 188.96954202573022, 176.4138630467769, 193.63945769056846, 204.20968246289365, 201.6564508393796, 207.384816879454, 218.73138817211185, 213.571778872659, 229.12081689921075, 226.40605892212906, 220.97274442602762, 219.703946586577, 238.38669180024718, 235.55525371290753, 254.32758137103517, 238.03544520389218, 250.70441566337973, 261.4325250476569, 273.8549362770072, 261.13253800975843, 268.5231767304865, 268.59497857625405, 260.58287493354925, 276.66699258730307, 286.87639260186916, 278.3656038775403, 269.71928135909786, 274.405395283072, 265.6575454726513, 285.0009987749444, 303.24327560673834, 305.4028396974936, 318.38629816287374, 315.3457061718094, 311.6916968709103, 311.7314413060118, 324.226333836616, 328.13118772061165, 331.4549968261995, 324.32312892034344, 317.6637010551056, 314.4792486692725]",0.7455241451259007,0.57685007403011
300.0,600.0,87.63648071452398,87.80487804878048,58.77551020408164,117.07317073170732,0.0,64.34183660565593,78.55669305428376,23.25581395348837,48.837209302325576,9.4375,302,816.0079508122202,3556.2875032238517,7149.968955781748,13191.307147672633,28.736982004653868,57.77613003163334,0.4973850271542923,0.171875,10.3125,139.41802189103757,154.75110229229188,0.9009177952587802,1.0347165908605407,"[4, 5, 6, 7, 8, 9, 10, 11, 12, 13, 14, 15, 16, 17, 18, 19, 20, 21, 22, 23, 24, 25, 26, 27, 28, 29, 30, 31, 32, 33, 34, 35, 36, 37, 38, 39, 40, 41, 42, 43, 44, 45, 46, 47, 48, 49, 50, 51, 52, 53, 54, 55, 56, 57, 58, 59, 60, 61, 62, 63, 64]","[48.65504624972584, 62.11054884629367, 76.09252132953095, 90.38825786017799, 94.9800043711183, 104.27362095326724, 114.62902911996373, 125.5454955700999, 120.8731947787214, 125.62475316561678, 131.78753900511754, 147.65646961940092, 147.38923633390618, 154.47874413683599, 157.44913751126228, 157.72368389807386, 165.03990500023974, 171.12318063588316, 177.00110624034005, 173.94025812411323, 180.02611318746654, 192.76660120269133, 197.10616852018254, 192.39187791557427, 208.5541293415598, 215.27635452992666, 225.60985768376162, 206.83545582475665, 212.32514486258773, 244.31419433786348, 262.9887498615606, 242.99968590553146, 241.21211349504574, 245.9722337982253, 261.25708511189856, 254.4014803954848, 281.24962907371685, 278.49938166901643, 279.6577394791386, 286.47532731961, 285.40478284014523, 298.915031443818, 288.3948717903141, 298.7435782037505, 300.25778276421596, 314.1681294029282, 327.92438364955086, 331.5566683527566, 308.3704019605305, 340.20767893404474, 357.267712873454, 355.008057457293, 343.29075286443424, 350.9542160024529, 356.2402252335857, 351.6141100044703, 352.8164385041587, 354.3977609224533, 351.5067727814123, 370.222370535093, 380.2039331447063]",0.7599516411677254,0.7091279408370105
360.0,660.0,88.25073546241096,89.44099378881988,58.77551020408164,114.28571428571429,0.0,69.33894487688197,83.18721101444666,23.166023166023166,43.24324324324324,8.666666666666666,260,1078.9156931244627,3161.205628452567,7396.290333068852,13225.737144795225,26.024961682611643,60.89074711846953,0.42740421023209435,0.171875,10.3125,143.84563761309363,154.34463212569287,0.9319769377917255,0.9097475444249592,"[4, 5, 6, 7, 8, 9, 10, 11, 12, 13, 14, 15, 16, 17, 18, 19, 20, 21, 22, 23, 24, 25, 26, 27, 28, 29, 30, 31, 32, 33, 34, 35, 36, 37, 38, 39, 40, 41, 42, 43, 44, 45, 46, 47, 48, 49, 50, 51, 52, 53, 54, 55, 56, 57, 58, 59, 60, 61, 62, 63, 64]","[49.43301259185383, 70.03415149646631, 75.30552017353328, 86.31222621217006, 94.44874299463422, 103.24575599705307, 108.23765376446453, 113.7854439259553, 122.91795695268772, 128.81494059256008, 136.71654676176132, 134.4924715784792, 148.22076142397452, 151.43237241160878, 153.7602918557651, 164.5065397708455, 154.92773870370002, 167.71918259203485, 177.1404939965732, 169.2221797887572, 181.01588602718408, 197.44424215636445, 195.5958468117428, 188.17848735546278, 199.35092993236097, 212.9740237042106, 202.32397702308916, 229.25156402672428, 249.26182708314337, 238.12982163876995, 220.96201626297707, 243.65359409845618, 243.14661878454183, 258.97416667254913, 258.818514730694, 272.79548095065525, 269.453763335947, 268.9113847319594, 270.047916528824, 271.1759749262215, 273.8932794559274, 295.60045989093993, 304.79552940399606, 317.3249201624943, 301.9615148855367, 299.6678868150701, 310.5529318804746, 317.7512332536409, 337.1034394440862, 347.69207574142587, 355.0918726764997, 354.03189689941837, 349.14558193478183, 339.59871775980264, 333.79569095718557, 356.5466851166062, 348.3300880684791, 345.2142530915256, 350.9809368073014, 353.36842901478843, 358.9895699965318]",0.7143938347058341,0.7044771781154648
420.0,720.0,89.21529083245753,90.56603773584905,58.77551020408164,119.00826446280993,0.0,74.40314517267201,86.0715336545092,19.09547738693467,37.185929648241206,7.6923076923076925,200,68283648.80419572,9006598.108953223,1738164.407657396,90299519.83616413,40.909569718477556,7.89505173396716,5.18167215326416,0.15625,9.375,4358.754659457629,4367.124721443038,0.9980833929600611,0.007349188725390308,"[4, 5, 6, 7, 8, 9, 10, 11, 12, 13, 14, 15, 16, 17, 18, 19, 20, 21, 22, 23, 24, 25, 26, 27, 28, 29, 30, 31, 32, 33, 34, 35, 36, 37, 38, 39, 40, 41, 42, 43, 44, 45, 46, 47, 48, 49, 50, 51, 52, 53, 54, 55, 56, 57, 58, 59, 60, 61, 62, 63, 64]","[196.75015474481103, 267.39729049939734, 434.8044581285237, 616.3389170013431, 614.2610295276861, 713.6398868252286, 778.1722139279136, 894.5087353788342, 1028.0744542491711, 1077.1037170645036, 1220.1549050045578, 843.7082368823994, 1375.6888701802588, 1576.2070059158289, 1555.7500744870295, 1016.6280711587921, 1736.0338028539238, 1973.6768794946788, 1099.234096207264, 2048.571384079422, 1172.0083947829216, 2238.3371697183193, 1250.3274027754362, 2062.077199633646, 2308.897979437741, 1369.0862316865134, 2257.479965537006, 2655.2079975759502, 1529.4037414920804, 1573.113865086099, 2970.695059183769, 3105.193347578045, 1851.9429617024086, 1839.3761067455096, 1866.6451230762448, 3536.7412793496187, 3666.133495936105, 2228.1624501882357, 2238.780510580799, 2257.5976795393367, 2281.5051746430045, 3408.323792531966, 4385.723358748491, 4375.363092554552, 2759.325000800861, 2783.0380376391067, 2807.2685668985505, 2812.0979107768226, 2817.9874401356105, 2840.2922514965176, 4099.135665734963, 5229.883352024788, 5438.092274321605, 3541.010640561176, 3555.040608230383, 3569.632420311987, 3584.230814133562, 3601.613420625291, 3618.0783455765545, 3628.1357731139415, 3630.1895290124053]",1.265860854996231,0.8501615856717245
480.0,780.0,88.49895696328417,89.44099378881988,59.25925925925926,119.00826446280993,0.0,81.3681173185025,97.08793474562496,35.12195121951219,59.02439024390244,10.3,206,87190092.1087531,13348553.562901562,2413852.768890349,115928855.46072325,46.447905219228815,8.39929240979282,5.529978354495046,0.171875,10.3125,4327.99210926312,4338.2613100919125,0.9976328763772474,0.007242782622597438,"[4, 5, 6, 7, 8, 9, 10, 11, 12, 13, 14, 15, 16, 17, 18, 19, 20, 21, 22, 23, 24, 25, 26, 27, 28, 29, 30, 31, 32, 33, 34, 35, 36, 37, 38, 39, 40, 41, 42, 43, 44, 45, 46, 47, 48, 49, 50, 51, 52, 53, 54, 55, 56, 57, 58, 59, 60, 61, 62, 63, 64]","[340.18573058152134, 443.37983812138776, 338.5089511812263, 514.9730218381486, 605.4868488521688, 746.6026350136873, 869.2217723593819, 931.459428839796, 933.6626634845658, 1098.4154407651517, 1225.9509244182188, 1224.1883185901308, 1418.835559561999, 1334.060778495339, 1536.3976562382093, 1692.3747094916157, 1612.237900362641, 1924.2557952831203, 1724.1293869747371, 1960.663320156705, 2369.085496344399, 1878.3670881609144, 2326.9832071720216, 2418.760192941288, 2410.4827685848195, 2545.598753551713, 2827.3883707252867, 1842.9298230507593, 3217.5471376307023, 2603.925071685749, 2465.0218619617153, 3139.1008451122543, 3759.3317207135956, 2987.899874227412, 3430.9931566793853, 3617.15843245154, 3453.1918044761087, 3351.8822582088987, 3939.460921780992, 4198.86554253681, 4429.970785563314, 4411.44488925239, 3827.323428056831, 3416.3535703090033, 4813.040625489242, 4557.515552362744, 4009.5297583820648, 3913.243135215324, 4453.631752414164, 4733.671708015921, 4943.41150394965, 5132.744136805348, 5289.673266204916, 5404.083156853231, 6722.331073636102, 6593.5924318224115, 6248.720580393385, 5560.61548312485, 3668.483242718463, 5110.869148594251, 5824.877051549654]",1.0865344222855846,1.0602459102372268
540.0,840.0,86.78724222068867,84.21052631578948,62.608695652173914,119.00826446280993,0.0,82.7613689108814,91.21305563542388,43.43891402714932,66.51583710407239,14.8,222,85218804.27958143,15198655.51815556,2712367.4361390397,118223072.06651223,46.05057629599649,8.218232422696246,5.603464823995349,0.171875,10.3125,4261.180945150814,4274.91728537164,0.9967867588297369,0.007014274580881625,"[4, 5, 6, 7, 8, 9, 10, 11, 12, 13, 14, 15, 16, 17, 18, 19, 20, 21, 22, 23, 24, 25, 26, 27, 28, 29, 30, 31, 32, 33, 34, 35, 36, 37, 38, 39, 40, 41, 42, 43, 44, 45, 46, 47, 48, 49, 50, 51, 52, 53, 54, 55, 56, 57, 58, 59, 60, 61, 62, 63, 64]","[387.013624896154, 327.37314494369923, 491.01243448735715, 361.2302704595991, 535.6246619212227, 570.0928554686806, 806.2118223339386, 899.9759345060744, 1019.6324267351289, 1036.9599149683374, 1064.9017434721488, 1227.4073373190279, 1394.2224132525907, 1331.748566523139, 1339.539626798977, 1462.18725574428, 1630.9071531038373, 1119.3974422545416, 1779.6679312700026, 2102.1297904002076, 1973.8509050001994, 2173.3864247815713, 2301.069217014162, 1217.7297739810297, 2587.1377663134062, 2388.893888626083, 2685.473976439966, 2455.7086746046934, 2680.026210285304, 3247.266325082651, 3048.2622415917203, 2779.6209604137157, 2653.8493910126012, 2909.5228150516323, 3002.785311058305, 3759.6129858202157, 3680.5550684022087, 3435.440871344404, 3316.4827682485925, 3923.0691858143964, 4115.058624511999, 4228.402858062115, 4047.3331852454407, 3334.9489331029745, 3989.4370951894894, 4406.504477141789, 5241.373208624978, 4982.37602464908, 4508.695584134094, 3720.005917332505, 3632.6541097560707, 4151.774035133397, 4703.21746024233, 5066.00082436549, 5290.742126766233, 5385.377916517606, 6553.942571331758, 6197.131263889231, 5381.187186113884, 3817.238818891795, 5554.679295570459]",1.0708035196296501,1.0960661044892586
600.0,900.0,83.87167688219509,79.12087912087912,62.608695652173914,123.07692307692308,0.0,88.9213091210647,91.66708200331213,40.78947368421053,61.8421052631579,14.3125,229,71305296.31812213,18490857.557479504,3386326.3945176406,112952941.88444652,44.39832625840179,8.130895152584014,5.460447518412767,0.171875,10.3125,4289.833820524155,4302.605016290827,0.9970317526897504,0.007114029090556848,"[4, 5, 6, 7, 8, 9, 10, 11, 12, 13, 14, 15, 16, 17, 18, 19, 20, 21, 22, 23, 24, 25, 26, 27, 28, 29, 30, 31, 32, 33, 34, 35, 36, 37, 38, 39, 40, 41, 42, 43, 44, 45, 46, 47, 48, 49, 50, 51, 52, 53, 54, 55, 56, 57, 58, 59, 60, 61, 62, 63, 64]","[107.2576152174089, 399.34745807012536, 289.96973749595577, 495.351069873876, 398.06303634548755, 721.7525479772532, 758.6422448363398, 908.6538593699322, 678.1508386232239, 988.308996629687, 1165.7265670235338, 1248.593290784016, 1280.7696100535748, 1387.8178084346068, 1492.103044281926, 1506.2078452398905, 1745.1050770217553, 1951.7495363159921, 1873.3364198255865, 1765.1483371982351, 1337.332494076318, 1975.1336487539315, 1970.963316890622, 2203.3439714367014, 2356.2586940588117, 2593.4041047629703, 2631.7364515747504, 2789.7172853321845, 2791.796231097298, 1699.363736381794, 3150.462782961136, 3113.230549345767, 3005.283941655766, 1840.3166949186195, 1825.8024337232841, 3524.732800768303, 3513.5738708895847, 3318.874921867942, 2039.4048236839799, 2020.1762242114044, 2018.899445898455, 3455.690231512412, 4117.910498684077, 4040.320553687485, 3855.921410159062, 2373.8863170159434, 2385.8557416953395, 2403.2430186585384, 2417.4715156424163, 2423.5270153805054, 4026.0335045514134, 4846.907355984539, 4994.7516005489315, 4911.822985779907, 4776.327422095471, 3055.896780156114, 3071.8621522697417, 3090.331539599897, 3108.467171274478, 3126.895092723168, 3138.822228655785]",1.5060217475949742,0.6818704414461584
660.0,960.0,82.97545376388916,77.83783783783784,69.90291262135923,134.57943925233644,0.0,87.69019763472484,88.4913044073312,41.95804195804196,62.23776223776224,11.958333333333334,287,3035890.3390184315,2078162.8918542212,432955.1498653479,7395018.302656157,47.67382167235069,9.932150500671321,4.799949584848557,0.15625,9.375,2865.480024944963,4726.681417875044,0.6062350667655503,4.912114093022556e-05,"[4, 5, 6, 7, 8, 9, 10, 11, 12, 13, 14, 15, 16, 17, 18, 19, 20, 21, 22, 23, 24, 25, 26, 27, 28, 29, 30, 31, 32, 33, 34, 35, 36, 37, 38, 39, 40, 41, 42, 43, 44, 45, 46, 47, 48, 49, 50, 51, 52, 53, 54, 55, 56, 57, 58, 59, 60, 61, 62, 63, 64]","[103.29784574892086, 92.87321297635795, 114.07127789273378, 131.3562239354142, 221.23660714867128, 169.5423219149421, 190.08217977956366, 289.1479160922299, 218.1547254488611, 224.55261653826113, 241.95817673095263, 253.7671855106823, 369.67898007611575, 277.61147239375026, 279.22086309794327, 292.898895863562, 295.16078924060855, 305.3760864017516, 438.31420465615207, 328.775158441275, 336.0475445651032, 346.2914046323099, 353.40268422361856, 345.5267887570342, 364.9680427504407, 373.818648308366, 384.7682138861403, 385.21484459811967, 547.8376045192755, 408.91492961172946, 414.2140818219779, 416.7177198250121, 438.5362039728861, 433.4688214036242, 428.26239786707157, 440.5969433308249, 462.76008495615713, 459.9797860156365, 465.14523665586887, 461.36251154981596, 656.8983374789261, 506.30703310883877, 497.2588517349006, 483.3975772951298, 489.2595275437766, 488.7569399485665, 492.5797034099427, 526.0724764566152, 526.1366568240301, 528.7728201162702, 533.8870588559432, 539.2114709129428, 539.1925719443453, 547.462658473487, 561.1916695421902, 623.7125580127675, 621.5932212200727, 616.5631049547601, 600.7303199113549, 590.1935445483922, 583.6591064859746]",0.8832582033743874,0.5374869974647557
720.0,1020.0,82.3487258429111,77.83783783783784,69.90291262135923,112.49999999999999,0.0,80.73340368813065,88.6258434793652,42.151162790697676,62.2093023255814,11.5,345,345.29599365703655,1748.0013421234617,4313.546094391356,7190.436477808211,25.536383748013336,63.01618066683483,0.4052353455539243,0.15625,9.375,108.78732797413238,127.7830889612802,0.8513437017248522,1.0000277935111568,"[4, 5, 6, 7, 8, 9, 10, 11, 12, 13, 14, 15, 16, 17, 18, 19, 20, 21, 22, 23, 24, 25, 26, 27, 28, 29, 30, 31, 32, 33, 34, 35, 36, 37, 38, 39, 40, 41, 42, 43, 44, 45, 46, 47, 48, 49, 50, 51, 52, 53, 54, 55, 56, 57, 58, 59, 60, 61, 62, 63, 64]","[40.955495719388466, 56.00491508163615, 65.4067346097168, 72.13986141568031, 78.79528912664249, 93.44343107906026, 94.9668157159638, 102.38200487813558, 106.89160237780027, 113.22546344742949, 118.83540444812742, 117.98076143130581, 122.52569783695579, 127.26352246770246, 133.18604171648204, 127.79999270018703, 133.15116805250378, 136.1998064642167, 143.26332106434225, 149.8154804295831, 149.42154616488895, 145.69158907734078, 160.3720302129132, 159.13845571208597, 164.01877807432348, 160.44084434054113, 167.55100887069426, 169.9344130501227, 174.87462499015916, 173.87269112109811, 179.92159964107623, 173.78172309947442, 181.62765048217324, 184.08332621727442, 196.44227330714685, 197.4525036357639, 199.76214478872583, 191.68314901636515, 204.04009753976482, 204.43843353889423, 204.4516544175864, 203.4805050256262, 199.52297988969235, 200.80671164766454, 207.89975484274333, 207.66673213757775, 211.69452038986222, 221.6542720996105, 222.88475343653585, 226.55630804431627, 229.19236974717234, 225.98147247592482, 223.80079872068686, 224.25121466077917, 222.1940865278221, 215.97712733376343, 213.01110997680323, 210.3425903438117, 214.00835901547327, 229.65628077002432, 241.4740751931561]",0.7556801344879476,0.4653367824999829
780.0,1080.0,83.67559573453057,79.55801104972376,69.90291262135923,129.72972972972974,0.0,85.89443298737805,86.89088612647063,40.46242774566474,59.2485549132948,13.88,347,344.5353855338133,1749.806872066887,4522.226743548752,7378.69453642989,24.875849899472072,64.28951416279328,0.3869347936971757,0.15625,9.375,108.96994917840269,131.63568881203938,0.8278146311369954,0.9360719790006187,"[4, 5, 6, 7, 8, 9, 10, 11, 12, 13, 14, 15, 16, 17, 18, 19, 20, 21, 22, 23, 24, 25, 26, 27, 28, 29, 30, 31, 32, 33, 34, 35, 36, 37, 38, 39, 40, 41, 42, 43, 44, 45, 46, 47, 48, 49, 50, 51, 52, 53, 54, 55, 56, 57, 58, 59, 60, 61, 62, 63, 64]","[41.26062051673265, 53.046090920423524, 61.52889360599833, 70.90347965796592, 82.44245480567571, 89.41834792175206, 93.68173502795422, 103.43017570656589, 110.6070735108203, 111.8995472039187, 122.7550352927413, 118.9054361081788, 127.8566824985197, 138.95618786815157, 135.37592649252628, 143.32128441657503, 147.30545052480332, 150.78451524130713, 152.46502091989905, 151.48947940028017, 148.5570667265188, 171.92888153564883, 165.9879841609874, 170.6751737566843, 169.76967329613683, 165.9811364775623, 177.63718713767202, 181.2607164637506, 177.6364905825331, 174.5467070603429, 181.34670928147034, 190.4874923177284, 188.1573802252074, 194.40591802094184, 190.49878148112992, 203.13223925870503, 194.86567392942737, 196.0531032993213, 200.3843721494409, 202.9057751239508, 206.87393388999942, 199.86199456628623, 203.0686803318435, 206.9628991669178, 208.16991672618735, 214.60956610363064, 223.04363554129614, 215.6499072063388, 211.85601062453253, 207.09919842311618, 208.38822023685114, 214.34591152030384, 219.5001786943721, 226.88075431194596, 234.6692023983905, 240.3857470008327, 238.52398817230238, 231.85319510054597, 234.16453011072267, 235.8739384794048, 241.8264424114333]",0.7989170393059865,0.41828449156912567
840.0,1140.0,84.38129491295192,80.89887640449437,69.90291262135923,132.11009174311926,0.0,86.77060954276514,88.09177375374477,38.93805309734513,58.99705014749262,13.6,340,260.5164395091203,2806.5515217586867,4368.105260490358,8221.609887867835,35.25334226967647,54.868157104611065,0.6425100482683027,0.15625,9.375,115.66113090608698,139.89940470186042,0.8267449826006936,0.8708449657198302,"[4, 5, 6, 7, 8, 9, 10, 11, 12, 13, 14, 15, 16, 17, 18, 19, 20, 21, 22, 23, 24, 25, 26, 27, 28, 29, 30, 31, 32, 33, 34, 35, 36, 37, 38, 39, 40, 41, 42, 43, 44, 45, 46, 47, 48, 49, 50, 51, 52, 53, 54, 55, 56, 57, 58, 59, 60, 61, 62, 63, 64]","[44.48770771926519, 55.56955483743805, 66.17345059612518, 75.20113584497258, 82.72543291079242, 95.54004891339902, 101.53864886331318, 107.58068830794402, 113.19662343919296, 125.10281452495428, 133.33847262183167, 135.361387291734, 142.44608905149468, 159.63101543288488, 142.20326641318724, 151.68052888031477, 153.8428762804492, 160.7734940108629, 173.3782248277432, 180.47100858699227, 182.6309531717709, 179.63919979215987, 191.7068842790913, 186.2548105101168, 191.08442049539693, 192.92464447859584, 211.07690579001974, 204.26240137100447, 206.56470779672765, 215.58726011397349, 200.7679219488807, 202.85715982005595, 215.04459885822925, 211.6627083842939, 209.7002710286033, 211.4055118162931, 228.42229671075307, 226.95207549799042, 225.55559934937773, 220.97304300531852, 234.02814240213385, 235.39722364436815, 238.52457772588411, 241.43653723976013, 234.10750764383792, 236.18414951050022, 244.6529793665753, 246.06942654572563, 250.13835970593038, 245.3472170631014, 242.09469681678266, 240.36954363285435, 247.20338793236826, 255.6169421456971, 262.30567928467775, 261.9397031510597, 267.7455867255962, 266.3926730239977, 261.7341156815542, 255.1650501214524, 254.91398309572273]",0.8312061598259282,0.4287958769987212
900.0,1200.0,85.99735060951541,82.28571428571429,72.36180904522612,124.13793103448276,0.0,79.38979311399521,84.50808874594232,37.202380952380956,60.11904761904761,11.233333333333333,337,305.7361887944576,3816.8011831497897,4501.287156305149,9568.201281091046,41.207185615459416,48.59707552419045,0.8479355016938721,0.3125,18.75,121.06629135915927,140.09558172777932,0.8641692326486355,0.9208275578026127,"[4, 5, 6, 7, 8, 9, 10, 11, 12, 13, 14, 15, 16, 17, 18, 19, 20, 21, 22, 23, 24, 25, 26, 27, 28, 29, 30, 31, 32, 33, 34, 35, 36, 37, 38, 39, 40, 41, 42, 43, 44, 45, 46, 47, 48, 49, 50, 51, 52, 53, 54, 55, 56, 57, 58, 59, 60, 61, 62, 63, 64]","[47.022344121323634, 57.654148126189575, 70.22978523650356, 77.9187694864995, 84.71925894837997, 93.38161000794746, 105.3377271575679, 110.49598640539251, 117.98520123313543, 127.09026449706145, 132.85070271315536, 138.64938825403914, 140.26174022701554, 148.135667848565, 149.03146217646528, 158.29391815739243, 164.60869053722098, 169.2244217010773, 170.6279520890166, 188.83187868465723, 181.23717515366383, 185.7783347842476, 195.34605458146376, 201.90644634565538, 198.92673450280944, 214.4957044084644, 200.74056612480155, 207.28484626038696, 212.20156284647888, 218.71847381065243, 217.03386846216281, 216.1608431416321, 217.2848302947921, 222.30881535074022, 222.21678806685534, 224.24835298754573, 227.49615233068653, 229.39531697868716, 234.6262454972666, 241.2743734737524, 229.1863283870785, 244.64475866652103, 250.70587342421615, 244.3831480860223, 248.69270955277574, 258.1441467354583, 247.85749916098956, 244.70575499548227, 252.49172358591915, 259.3418293464234, 267.79586553824396, 264.7992970394395, 264.03212144571916, 261.0352167142675, 249.8170065942711, 245.27338772886637, 253.0760622047395, 260.40754834740693, 263.19232298591476, 264.7212069226235, 274.32788246313345]",0.7957306920936728,0.43148047647917875
960.0,1260.0,86.54770706547836,82.28571428571429,73.46938775510205,139.80582524271847,0.0,79.12135364998996,85.30880884489699,35.50295857988166,59.76331360946746,11.3,339,533.3179085152917,4008.7037093729996,4636.774036733756,10287.188848932608,41.09859289568874,47.53778335860749,0.8645458410556529,0.234375,14.0625,117.6320207923003,138.32376140641745,0.8504108014145054,0.9073543107466796,"[4, 5, 6, 7, 8, 9, 10, 11, 12, 13, 14, 15, 16, 17, 18, 19, 20, 21, 22, 23, 24, 25, 26, 27, 28, 29, 30, 31, 32, 33, 34, 35, 36, 37, 38, 39, 40, 41, 42, 43, 44, 45, 46, 47, 48, 49, 50, 51, 52, 53, 54, 55, 56, 57, 58, 59, 60, 61, 62, 63, 64]","[44.28450672930769, 55.24217247081924, 64.21955366786025, 73.02287705555126, 86.57074892826809, 93.8701567800515, 98.2582965790382, 106.26433701682741, 114.87535512959967, 114.92953556000134, 125.74150674033736, 133.61103212933355, 139.06677886163544, 142.893959624469, 148.45000864736636, 157.88934227593413, 160.35659185390668, 164.7741541824223, 171.48267143192842, 170.7829048817862, 171.70164407196714, 177.25841924607332, 187.9666129315396, 184.23213052223673, 200.0682988137798, 208.27472863880345, 200.43769359538868, 206.23582923573545, 206.32963760822474, 223.16696270280588, 214.13481708694655, 218.25306000363318, 225.94579453806475, 224.45391229212484, 225.62597790626097, 229.91575065956997, 240.4561087908018, 226.99513946549126, 222.8660369416275, 235.0462433455004, 239.46269686279766, 239.16790538919875, 239.6230559917181, 245.58937272217523, 259.0863996292376, 259.2795225278059, 259.1567052524926, 250.5870763194869, 249.4715541231453, 234.18386995301378, 244.13916641875457, 247.3749437915118, 244.0657757180243, 269.2659922796539, 285.9878828333964, 290.5039999960904, 282.59914799715347, 277.5106944022123, 289.5056340053854, 294.10294237453746, 291.34882823080676]",0.8086458371365101,0.4941393040249993
1020.0,1320.0,86.56833243074027,82.28571428571429,73.09644670050763,124.13793103448276,0.0,78.7692264741822,83.98924512864478,36.57817109144543,58.70206489675516,10.96774193548387,340,583.7024529371962,3682.3607623669745,4533.127192765332,9811.05624357822,39.90700742505248,49.12705522750327,0.8123224003605849,0.234375,14.0625,115.77735758513636,137.51558156930187,0.8419217390779067,0.8130689690263472,"[4, 5, 6, 7, 8, 9, 10, 11, 12, 13, 14, 15, 16, 17, 18, 19, 20, 21, 22, 23, 24, 25, 26, 27, 28, 29, 30, 31, 32, 33, 34, 35, 36, 37, 38, 39, 40, 41, 42, 43, 44, 45, 46, 47, 48, 49, 50, 51, 52, 53, 54, 55, 56, 57, 58, 59, 60, 61, 62, 63, 64]","[43.87027581922901, 52.534332221166444, 65.1058898911101, 72.39963239186213, 78.49483340631798, 85.36973511735803, 95.54055806674344, 98.26144295630884, 111.90981842207104, 122.00520390141006, 126.29798346844956, 127.26448817434893, 142.85628216620665, 140.8133920697395, 160.75369348592915, 154.7201591771747, 166.26655729265798, 167.51230281613064, 178.13681005769394, 173.8777567099725, 185.5995480635504, 192.63816402261125, 187.19096439089944, 186.168410300338, 203.48265171548886, 207.32260972672853, 207.65265539745408, 207.03947090296117, 219.24287571268866, 218.28937243783716, 213.53726378815577, 225.70381969839318, 219.06534587724565, 227.05167104273258, 242.17865278295167, 244.56674093323227, 247.70168868412898, 240.41483459018536, 230.016378250061, 239.99806751636802, 244.52163355839355, 250.93050700724007, 249.29851903811817, 245.3060341291472, 234.8543205842243, 245.51840868916372, 261.8395416631526, 278.8594456541017, 292.90309587454067, 305.4931653378137, 312.18855494986434, 316.2210416677263, 309.1754186984799, 290.744958261173, 276.30913497257865, 278.3782757329251, 279.91148473460095, 278.21438951402223, 289.0457880001639, 301.39689222115743, 311.3624050614797]",0.826889637678187,0.5346166312617364
1080.0,1380.0,84.98086634642773,81.35593220338983,73.09644670050763,120.0,0.0,74.93470410130384,82.67737087432461,35.32934131736527,56.287425149700596,12.407407407407407,335,504.064907649728,3315.076344071659,4529.006979865062,9269.853231025823,37.818348125418524,51.66685314300106,0.7319653864102521,0.234375,14.0625,120.49237911063976,141.7658101412543,0.8499396221880448,0.8256008016673395,"[4, 5, 6, 7, 8, 9, 10, 11, 12, 13, 14, 15, 16, 17, 18, 19, 20, 21, 22, 23, 24, 25, 26, 27, 28, 29, 30, 31, 32, 33, 34, 35, 36, 37, 38, 39, 40, 41, 42, 43, 44, 45, 46, 47, 48, 49, 50, 51, 52, 53, 54, 55, 56, 57, 58, 59, 60, 61, 62, 63, 64]","[45.119078452402746, 52.32928386182423, 63.48055307711012, 76.97215188291845, 86.89884569814662, 96.60113790588376, 100.63264359196648, 106.40430980523777, 115.95189302934531, 125.61321947524742, 127.53950839155671, 134.73284885990213, 147.0006921192665, 146.20663231085334, 155.68067254562035, 153.253264956904, 159.76740884734875, 169.32190823771984, 178.74024513379445, 174.53433655431758, 186.5062465265132, 181.18945034440904, 195.62934486009107, 202.31331336029808, 204.41915048435646, 205.31335662630588, 204.86450472318919, 216.80717343212322, 217.01215347571707, 218.96279244674312, 224.69391857740814, 217.45714384751355, 222.39122255589794, 227.8296912976183, 229.0823426848867, 235.33148607413665, 243.4263877209887, 233.91412269834296, 226.01581011534137, 233.84213065690835, 244.31218534449738, 250.36319219192717, 248.69001434252561, 248.8868332291789, 254.15626245014175, 256.0897885037649, 265.8610849463521, 263.2421189434094, 256.0255411913862, 251.9516384799105, 249.94096679366638, 257.6347783896818, 266.5648946768963, 288.571300580803, 301.1473946626438, 307.21196687580544, 312.0332670015027, 310.9499847200435, 310.725860063507, 304.56398423682873, 306.4889411347749]",0.8446196673451644,0.5156401560322077
1140.0,1440.0,84.25997673339525,80.89887640449437,73.09644670050763,123.07692307692308,0.0,72.43834981083333,79.99151047683756,35.0,57.05882352941176,11.758620689655173,341,442.9865426625239,3401.0007882658224,4137.598577554504,8600.308281010068,41.69261550979077,50.722512980009924,0.8219745643561096,0.234375,14.0625,112.59316697163274,132.67651792249436,0.848629197801274,0.856676468158093,"[4, 5, 6, 7, 8, 9, 10, 11, 12, 13, 14, 15, 16, 17, 18, 19, 20, 21, 22, 23, 24, 25, 26, 27, 28, 29, 30, 31, 32, 33, 34, 35, 36, 37, 38, 39, 40, 41, 42, 43, 44, 45, 46, 47, 48, 49, 50, 51, 52, 53, 54, 55, 56, 57, 58, 59, 60, 61, 62, 63, 64]","[40.23668141929596, 52.36454371063275, 61.1629666535706, 69.58785187972033, 78.90196767224603, 91.02268489380928, 95.0240369751372, 103.75571676549282, 106.57401081503245, 108.06642477197498, 122.73301746915531, 130.32177024667016, 133.77632423562503, 129.08090685613197, 138.92775284600458, 141.76095454106562, 151.23745352460762, 149.3523747370017, 160.91098686397672, 166.02330306045357, 161.12655553306564, 170.91182143834268, 175.87874585595947, 186.19915411297944, 179.60784105082823, 184.4297097249755, 189.91625917991317, 187.8761023667216, 197.2583788180346, 201.09712787530765, 202.77449665606014, 207.66733378909146, 223.74446765512724, 212.48901383740716, 203.06815911843577, 211.57185308251184, 219.1907651210228, 218.85341497178587, 215.6595460839666, 223.59899272360113, 225.05974617520215, 225.62990162182464, 245.36673954533367, 258.63649474895465, 269.99696267290926, 258.49722402679055, 245.51666048918972, 249.6677369606114, 252.5476996239829, 255.73726557071058, 267.3894311375855, 273.59899241782057, 276.1395817177971, 270.39271128288857, 257.4916580826172, 259.5428980764223, 271.134976272292, 280.5758843919866, 290.6707599917661, 276.38285315105924, 282.8928406590395]",0.8389702548768293,0.5628962675628104
1200.0,1500.0,83.98631273037817,80.44692737430167,73.09644670050763,116.1290322580645,0.0,72.25525776151294,80.95909211603863,36.627906976744185,58.720930232558146,11.89655172413793,345,419.58710550615734,3713.809940464558,3097.0103548417283,7794.071068928923,50.36026871690212,41.996299269248034,1.1991596781904694,0.25,15.0,111.79012685045271,130.02333036966326,0.8597697546480884,0.8793244292690975,"[4, 5, 6, 7, 8, 9, 10, 11, 12, 13, 14, 15, 16, 17, 18, 19, 20, 21, 22, 23, 24, 25, 26, 27, 28, 29, 30, 31, 32, 33, 34, 35, 36, 37, 38, 39, 40, 41, 42, 43, 44, 45, 46, 47, 48, 49, 50, 51, 52, 53, 54, 55, 56, 57, 58, 59, 60, 61, 62, 63, 64]","[41.29518724598906, 54.11524322093149, 58.55239543168114, 71.20897061410784, 77.64070333410035, 84.74784885172001, 95.58660989300412, 106.64050436280912, 110.26355472035486, 119.8034703092334, 125.0501238451039, 129.2269720029321, 137.787894407353, 132.32226628205711, 143.52140633895698, 144.0090994071175, 150.8755076728808, 150.0892321407216, 150.7219150866881, 159.37933891438004, 174.5144514917245, 171.95389050122677, 172.2772300075046, 178.3577762854348, 177.4501924221358, 185.40324049251362, 181.07929832005925, 192.92141508836, 191.6005290289992, 176.59996917061846, 203.14874044920907, 186.7802724417959, 183.59657660339894, 199.43958904428717, 204.09257346862321, 199.382126665759, 201.4721047455646, 218.06985704229064, 214.41903192063842, 217.50011789741643, 206.51945329054706, 217.6016044936583, 230.297635704399, 232.36354149749963, 220.4242621093201, 223.58089955818483, 233.2228166954219, 253.72512075334078, 259.0180355114667, 254.96848768525976, 247.6195801638976, 249.04374973493987, 252.43595826827882, 249.92510591156108, 262.29316889672475, 275.7315677465563, 284.77883498367004, 281.89784827048146, 272.8610405501367, 277.20323425993064, 281.0655066993583]",0.8582772850771972,0.5262708246798474
1260.0,1560.0,83.54143011929368,80.44692737430167,73.09644670050763,116.1290322580645,0.0,65.93690602350419,74.83926256705074,34.971098265895954,56.936416184971094,10.515151515151516,347,233.4918460279327,4061.4468169907304,3880.01211340051,8806.858301776174,47.37283583938753,45.256576088603474,1.0467613755543685,0.25,15.0,112.13645250690776,130.77741107729608,0.857460409891655,0.9555809495958789,"[4, 5, 6, 7, 8, 9, 10, 11, 12, 13, 14, 15, 16, 17, 18, 19, 20, 21, 22, 23, 24, 25, 26, 27, 28, 29, 30, 31, 32, 33, 34, 35, 36, 37, 38, 39, 40, 41, 42, 43, 44, 45, 46, 47, 48, 49, 50, 51, 52, 53, 54, 55, 56, 57, 58, 59, 60, 61, 62, 63, 64]","[42.69974778937506, 55.7795303949007, 64.2422903089292, 71.39041297907175, 81.1425804597832, 88.2807656636914, 101.3772671058789, 107.36994455469684, 116.70388763284889, 112.00428663118154, 127.05512920034442, 131.5377242504072, 132.76928296111655, 137.41413808981207, 138.80028509644137, 144.1689238060593, 152.10141946849686, 158.8283313492368, 155.700101132175, 160.40941943014388, 164.1331024815519, 169.97013600002094, 171.04450407579716, 175.1072614190765, 183.21260706468783, 183.28873112358747, 178.96815814593052, 183.3807447188681, 188.63863029733417, 179.64357396995715, 191.1935923649131, 200.31715156375677, 204.43510713165287, 199.97317551744544, 190.86135594437792, 195.51015562841442, 202.46358753924787, 200.8367137132085, 201.6593224711907, 211.90450615936652, 209.12464941682413, 209.48920050450704, 206.44611405933514, 216.5362421222719, 222.11970214956483, 219.49325558125037, 211.9743147803705, 215.48480580782547, 221.4455019437726, 218.97571797904715, 221.8778397824198, 222.48852129401828, 231.51447279624816, 234.51713187418912, 232.6554140647445, 226.44156634867008, 226.5916763074715, 228.95402266556266, 230.49195010557912, 231.69979283583237, 234.6866740489808]",0.8139415354429369,0.39019463845964103
1320.0,1620.0,83.8612410425851,80.89887640449437,75.0,116.1290322580645,0.0,64.2209373708059,73.15360056321438,32.7536231884058,55.072463768115945,9.885714285714286,346,221.77835908409907,4006.3437700008844,4350.958990988905,9210.304403745748,44.57175459129121,48.40570043820445,0.9207955713437569,0.25,15.0,114.17576552072245,133.97927647190494,0.8521897455138502,0.9548970328665144,"[4, 5, 6, 7, 8, 9, 10, 11, 12, 13, 14, 15, 16, 17, 18, 19, 20, 21, 22, 23, 24, 25, 26, 27, 28, 29, 30, 31, 32, 33, 34, 35, 36, 37, 38, 39, 40, 41, 42, 43, 44, 45, 46, 47, 48, 49, 50, 51, 52, 53, 54, 55, 56, 57, 58, 59, 60, 61, 62, 63, 64]","[41.515418229910075, 55.22631038105414, 66.49847585340757, 78.15945676599112, 83.88634034398727, 95.40247018752292, 103.70627319676358, 105.58734100486221, 117.09166424506512, 120.65098030242025, 133.427512145767, 141.64986116710332, 137.92251703915662, 146.20348303047354, 150.9172910888705, 148.11277996209103, 159.36805527289528, 166.62306820494706, 172.91226912479127, 167.8367516501978, 167.3072309129886, 171.41801098619547, 172.9364164886431, 176.40648419658234, 184.14376577941277, 183.5621675185643, 181.99507131751943, 182.29881971690742, 184.88668294692508, 199.64717476225493, 193.3841732130799, 188.13528472273074, 185.22516541126762, 188.41383793290987, 192.37284034425556, 196.79934141523972, 198.31100273783315, 201.252798425638, 204.48781422149088, 206.43202511161596, 212.32772677328228, 207.58497531857333, 213.5575806555886, 206.67228109120822, 194.9578214002324, 211.52136032840332, 223.2088942088654, 226.12086324551908, 230.3086224157948, 230.2719926406608, 229.93123907182732, 233.74410730966727, 225.72668809763817, 234.1361330037244, 236.9712978143537, 233.5228405691633, 231.65666457562935, 232.059005457589, 230.62601446148685, 243.4170896022316, 238.97861467419463]",0.8514078373473134,0.3622666531702449
1380.0,1680.0,83.78891915842627,80.44692737430167,73.84615384615384,132.11009174311926,0.0,65.43733345544388,73.89633349123808,31.321839080459768,55.74712643678161,8.116279069767442,349,187.49461513277686,3350.682901942342,4128.694330776753,8333.69660816626,41.131841621504094,50.682444828983556,0.8115599348116334,0.34375,20.625,112.93651611351741,127.78779402749332,0.8837817177532568,0.957945573505935,"[4, 5, 6, 7, 8, 9, 10, 11, 12, 13, 14, 15, 16, 17, 18, 19, 20, 21, 22, 23, 24, 25, 26, 27, 28, 29, 30, 31, 32, 33, 34, 35, 36, 37, 38, 39, 40, 41, 42, 43, 44, 45, 46, 47, 48, 49, 50, 51, 52, 53, 54, 55, 56, 57, 58, 59, 60, 61, 62, 63, 64]","[40.72657906131012, 53.59068434755678, 63.5615953477657, 74.26190870670247, 80.7463061182175, 89.6067435360748, 97.73154670380575, 105.98571721277236, 110.65185571449636, 114.71804594616263, 123.94755780775768, 126.34960911715204, 137.48499637699905, 136.80680124153477, 146.06828175304238, 145.23847450267988, 147.93708486856323, 152.23239003341183, 156.4583508618398, 162.08845215834006, 161.6349098765519, 164.00945136748146, 173.04562737184557, 171.1173741129842, 176.2047889337799, 178.12278598032077, 175.38901059256227, 176.78544325848236, 179.6494215990612, 184.5472719099039, 191.20446166591032, 191.4333534266606, 194.19637268502927, 186.483682169348, 199.38138825887853, 203.58654131985006, 202.4756242594773, 194.29212804426697, 204.89027020999083, 209.6730875899837, 210.6375683110576, 220.7382086859956, 200.92450827824464, 218.7828092235777, 223.59942587608347, 219.85392124262012, 219.9644582050657, 223.3306075343649, 215.4557685536316, 213.89532360762993, 219.7427956285881, 221.98279653303004, 225.59969250349158, 231.1859185307599, 231.0155717478037, 228.1845274044821, 224.9955388035209, 217.6079603428281, 221.04566771194916, 233.85448026034933, 231.2500802589691]",0.8297782894168916,0.38615796694264237
1440.0,1740.0,83.85769791385148,80.44692737430167,73.84615384615384,116.1290322580645,0.0,67.03896845145823,76.91236945779828,33.810888252149,56.446991404011456,8.75,350,230.77086334363278,3064.4333452543992,4034.0277947657373,7996.2733116438085,39.462138678807406,51.94805901643574,0.7596460662047461,0.34375,20.625,113.65659999297279,129.1705381066694,0.8798956918420116,0.9708739102057877,"[4, 5, 6, 7, 8, 9, 10, 11, 12, 13, 14, 15, 16, 17, 18, 19, 20, 21, 22, 23, 24, 25, 26, 27, 28, 29, 30, 31, 32, 33, 34, 35, 36, 37, 38, 39, 40, 41, 42, 43, 44, 45, 46, 47, 48, 49, 50, 51, 52, 53, 54, 55, 56, 57, 58, 59, 60, 61, 62, 63, 64]","[41.69502548380973, 52.13574418793457, 63.49174176198975, 71.05245933784862, 81.30595008672132, 90.25072110873732, 99.62144974879087, 107.79845407233312, 111.99753372442605, 114.87404087496238, 122.62696373614122, 130.61038605681264, 131.6731491145905, 137.18223776112978, 142.49047991838952, 144.5622736260888, 142.83986666889848, 155.15675864929034, 159.90363341511022, 157.56171202604884, 167.7458309111281, 174.54848648841028, 172.88707670533, 171.07462159396104, 173.0002636329155, 175.08064102271047, 180.8154443710262, 182.4455149615984, 185.61127899915402, 190.8078652912159, 197.74619809604891, 185.8295895813213, 196.53359607710846, 190.0469068413868, 189.7322866695472, 195.72676449384034, 195.08624909592908, 198.49275005955099, 196.38926604674, 195.76774365631698, 201.436056143383, 211.2066137483188, 211.1071227046494, 203.3406869470111, 206.50498251937006, 204.87986376466222, 210.84572782757425, 215.73964079593014, 216.4758416751484, 228.34682516576873, 232.30113123413435, 222.74595024160362, 224.2844398564621, 229.87992114214944, 231.40081425809916, 231.5279350128244, 233.9590669794888, 235.24776832800225, 239.37986215805472, 241.54532107414937, 245.22363740927835]",0.8318576039512611,0.40031745832733856
1500.0,1800.0,83.52575099749782,80.0,73.84615384615384,116.1290322580645,0.0,66.50853779076876,78.5958829665066,37.06896551724138,56.32183908045977,8.116279069767442,349,195.6830378494447,2793.8809889918734,3527.7271574597585,7017.025452764465,40.95793494962208,51.71602512939833,0.7919776287358028,0.234375,14.0625,110.90793623818213,123.66844011272842,0.8968168122528706,0.9166737643146209,"[4, 5, 6, 7, 8, 9, 10, 11, 12, 13, 14, 15, 16, 17, 18, 19, 20, 21, 22, 23, 24, 25, 26, 27, 28, 29, 30, 31, 32, 33, 34, 35, 36, 37, 38, 39, 40, 41, 42, 43, 44, 45, 46, 47, 48, 49, 50, 51, 52, 53, 54, 55, 56, 57, 58, 59, 60, 61, 62, 63, 64]","[37.95619101469151, 54.36203031652918, 62.39233641322708, 72.08804761132058, 80.22843431351791, 88.40293873984919, 91.44219685533852, 99.00394123685656, 108.72750459896095, 114.62233051018754, 121.1386698893025, 120.358792027656, 126.10519025003833, 132.07329880064745, 134.48790539462422, 139.57629788399476, 148.87418009291173, 149.09743341415628, 152.6357869366669, 155.53510442684046, 159.0852170628489, 158.52853693875903, 157.5206142428794, 170.3960843442803, 164.13308142330303, 167.5560655412226, 171.20317662924825, 178.95491539224946, 172.1146597381222, 171.30752715534112, 175.43384236399461, 183.1793887394865, 182.03523489231904, 180.34766557492665, 186.63575663315623, 189.96835409451626, 192.31299111878002, 189.99569559536224, 184.90875098967413, 191.55016952719143, 188.43277465673452, 192.43823255486305, 196.7910927214564, 198.31458425507557, 199.26885972057772, 201.13893513073123, 204.33584448986647, 207.1920169232361, 211.56059871157242, 217.2791735092376, 221.55317838600064, 219.6707460718977, 215.74336826232076, 215.70342269088056, 213.2550381290006, 205.5041049269834, 211.77642150609114, 218.74298187978843, 223.5853970611523, 221.0132036935638, 217.51401258262422]",0.8142468759649293,0.3767260717230591
1560.0,1860.0,83.93493646425068,80.0,73.84615384615384,117.07317073170732,0.0,71.50750585794611,83.68333292080774,41.040462427745666,59.82658959537572,7.886363636363637,347,227.6176119363647,2292.6265725021667,3673.8942497831335,6658.7997236900665,35.64860289544804,57.12626677245979,0.6240317267263472,0.234375,14.0625,116.0060651005273,122.40345394646609,0.9477352260930747,0.9312989359041605,"[4, 5, 6, 7, 8, 9, 10, 11, 12, 13, 14, 15, 16, 17, 18, 19, 20, 21, 22, 23, 24, 25, 26, 27, 28, 29, 30, 31, 32, 33, 34, 35, 36, 37, 38, 39, 40, 41, 42, 43, 44, 45, 46, 47, 48, 49, 50, 51, 52, 53, 54, 55, 56, 57, 58, 59, 60, 61, 62, 63, 64]","[42.93746372014189, 54.938193895265805, 63.86752025918463, 73.59224741978268, 81.24574458424178, 86.22203511360324, 94.42704199928376, 98.28960713651918, 105.81555803669792, 109.56556873505782, 122.77169239440333, 119.34234247878405, 131.85262595324573, 130.38644857533055, 139.09097425782093, 136.76289145130124, 146.967104010915, 147.89484172772114, 151.96781860573086, 159.76431212076784, 145.09981544627846, 158.49212528572932, 161.11368841007803, 163.18320087987564, 165.59798459239985, 170.26487113141772, 169.22624159561502, 167.69280129074028, 170.1277770056269, 182.2046017640864, 179.66862199436684, 180.64564178292792, 175.72573361409368, 183.35586932275623, 188.23993869198858, 190.80673424849047, 193.87930460757656, 194.56409596181607, 192.08683989347668, 188.8923754979011, 196.24558903136287, 191.6942017368004, 191.01432752778535, 202.77574748649968, 204.20540913069064, 208.0649789989293, 212.4585137901134, 207.27491122674815, 202.01316319695712, 203.21952445239955, 199.999941512123, 201.9219063697416, 209.60918591810167, 217.6933077466549, 219.00125749175336, 222.78529405267903, 223.74743884493458, 231.84739882436355, 231.14510493074698, 234.86271167939552, 232.3650468492102]",0.7611977915725696,0.392767286183532
1620.0,1920.0,84.04702599652722,80.0,73.84615384615384,117.07317073170732,0.0,73.13575449771886,88.05368667543323,44.24778761061947,63.716814159292035,8.947368421052632,340,248.38993921619522,1698.44354318899,3496.5267900762233,5847.230573891567,30.335629356370635,62.450907575778096,0.4857516172933325,0.265625,15.9375,117.32655706762888,121.80679575600858,0.9632184833319639,0.9634887144374753,"[4, 5, 6, 7, 8, 9, 10, 11, 12, 13, 14, 15, 16, 17, 18, 19, 20, 21, 22, 23, 24, 25, 26, 27, 28, 29, 30, 31, 32, 33, 34, 35, 36, 37, 38, 39, 40, 41, 42, 43, 44, 45, 46, 47, 48, 49, 50, 51, 52, 53, 54, 55, 56, 57, 58, 59, 60, 61, 62, 63, 64]","[42.71684495184243, 55.587864751906146, 65.96827276040018, 75.5594426610816, 80.98525777118965, 88.40763979114877, 93.37255110682185, 100.28720322809778, 105.8673296116526, 109.82871143112094, 119.04063212428235, 117.66476514514217, 120.47193911339265, 128.16724699328864, 129.43801305470865, 133.62682549822804, 136.0822054514058, 139.04044757561468, 142.55425538425987, 144.66740690030795, 155.09078563837826, 150.8116191053472, 155.14949662505617, 153.39498092497837, 159.8623898477167, 157.74137492881658, 158.29229461729415, 160.4923817987596, 166.26005909771027, 174.53686608177773, 167.6688431203076, 180.8277777615016, 182.19528543434959, 178.07363457931706, 183.44700399950977, 187.68264831232418, 178.99435003591677, 185.93007002470222, 190.6699688141071, 190.30696597421883, 182.48483522106233, 181.87430280119776, 194.8237571852075, 204.574531071475, 208.32149387260782, 199.8245700971636, 192.96331814649514, 191.1728488443528, 202.304763844933, 214.87982859996845, 214.29903868324283, 205.6685916028451, 209.82581172058238, 207.5235803553376, 208.86861193045056, 211.4062568606969, 213.95949862563728, 218.95151926061615, 224.22499963914203, 215.2451424003408, 227.43468680259755]",0.7218895905195241,0.418175441448338
1680.0,1980.0,84.71168162895265,80.89887640449437,73.46938775510205,138.46153846153845,0.0,76.05551190271599,90.44327221645933,48.059701492537314,66.26865671641791,9.6,336,212.59148764670977,2043.1977836375634,3749.753083948934,6555.026424251475,32.214722012289634,59.12166417833611,0.5448886201023759,0.265625,15.9375,119.54303991903569,121.82910812055124,0.9812354515535527,0.9620057170269989,"[4, 5, 6, 7, 8, 9, 10, 11, 12, 13, 14, 15, 16, 17, 18, 19, 20, 21, 22, 23, 24, 25, 26, 27, 28, 29, 30, 31, 32, 33, 34, 35, 36, 37, 38, 39, 40, 41, 42, 43, 44, 45, 46, 47, 48, 49, 50, 51, 52, 53, 54, 55, 56, 57, 58, 59, 60, 61, 62, 63, 64]","[45.2979699329835, 56.286591987679806, 68.19764228676505, 74.2058179371888, 84.36283979720902, 90.76759188924946, 98.69484000568418, 97.1881940084763, 106.64831105341348, 115.98072940448893, 114.10224391814616, 121.28433070140636, 121.40108978297397, 125.28788767786632, 131.5844854076656, 135.70025250936524, 133.4459790121898, 142.00950906982183, 141.14369483465674, 140.5618191372765, 147.77159725892682, 148.24952552887885, 153.39526735568785, 153.84952024722344, 156.205770999745, 155.71096833109576, 159.08867464108704, 163.69743007839503, 163.3093677912978, 166.65615240324874, 166.9306978496091, 171.00915101406028, 165.134115922592, 172.24624547975137, 167.81209822292527, 172.5919507384725, 170.7875494864946, 177.10629069930758, 178.85586470244334, 184.86854825138886, 190.65600000864578, 183.40094384286462, 190.51014274955548, 188.86156324233764, 183.83722939851782, 185.47958470533285, 192.6894789717296, 193.28827908431063, 192.76825964300735, 192.56324531255973, 190.53713939364758, 194.12867521160726, 195.74391457302877, 201.1013126366583, 203.81706632565405, 200.0489937532484, 197.50568127158925, 194.28879271291672, 190.31984221787883, 189.99826791292767, 190.70302644943385]",0.6994314368074757,0.34248454240192605
1740.0,2040.0,83.8547045488857,80.44692737430167,72.72727272727273,135.8490566037736,0.0,71.45425331105164,85.09035033941001,44.87951807228915,66.26506024096386,9.25,333,253.91457207040932,2200.4031307387877,3790.659634565475,7010.260042362672,32.567948758896186,56.10517773599727,0.5804802706827623,0.15625,9.375,117.58920348170986,124.39087045905443,0.9453202075663305,0.9671558206780994,"[4, 5, 6, 7, 8, 9, 10, 11, 12, 13, 14, 15, 16, 17, 18, 19, 20, 21, 22, 23, 24, 25, 26, 27, 28, 29, 30, 31, 32, 33, 34, 35, 36, 37, 38, 39, 40, 41, 42, 43, 44, 45, 46, 47, 48, 49, 50, 51, 52, 53, 54, 55, 56, 57, 58, 59, 60, 61, 62, 63, 64]","[46.136269580407735, 55.67442255271369, 66.2152239948775, 74.80528549136294, 84.02594580663725, 90.54098486603336, 96.93450590271915, 100.4985031774682, 107.29066347634081, 113.16222355713414, 108.83254399925211, 115.44202429531992, 126.48871175489879, 128.767124501892, 133.55436017387706, 129.42521981643384, 134.6730401440702, 135.93880939144293, 136.11679152872156, 150.3512179643524, 148.52824000784824, 141.7557593769357, 147.07099708771736, 153.56400424146804, 163.86851930386428, 154.50040796738784, 163.6240352386676, 166.89768213992616, 166.88963386951428, 162.28839631629248, 178.04314875804656, 170.66662572470568, 175.24888088627105, 184.30405952946433, 178.4526854149799, 154.7221999597507, 169.10256110165682, 180.5206001621976, 188.80643948385426, 182.56578536158688, 184.21093338019588, 190.44258665557857, 189.46986280232102, 197.60854602291363, 196.63308881438672, 198.35857510519713, 188.05734659887568, 201.54911110665822, 213.57036434838042, 215.8286955184907, 210.97432857148434, 215.35257255552887, 224.40462491990613, 220.98436184436687, 221.29549321563755, 223.8057112107756, 225.7640668836454, 229.73561946333908, 246.35415769974387, 249.55604117739907, 243.8356513247702]",0.6902359094623146,0.4645392955764884
1800.0,2100.0,83.4752259050584,80.89887640449437,72.72727272727273,117.07317073170732,0.0,67.18661566899551,76.94001627433204,39.87730061349693,66.25766871165644,12.576923076923077,327,253.1247288155106,2010.8419051544188,4629.736526395086,7639.255428485672,27.224564347936816,62.68148662197155,0.43433182292128136,0.1875,11.25,127.38402559461676,134.3514787235465,0.9481401083551406,0.9776597904797297,"[4, 5, 6, 7, 8, 9, 10, 11, 12, 13, 14, 15, 16, 17, 18, 19, 20, 21, 22, 23, 24, 25, 26, 27, 28, 29, 30, 31, 32, 33, 34, 35, 36, 37, 38, 39, 40, 41, 42, 43, 44, 45, 46, 47, 48, 49, 50, 51, 52, 53, 54, 55, 56, 57, 58, 59, 60, 61, 62, 63, 64]","[48.9849967823246, 61.369146717303245, 73.52092838694307, 79.89456733959898, 91.64305238266527, 95.77336990365373, 97.79509494169464, 110.97277460687376, 116.44590131004617, 119.34282318476995, 117.21910737550856, 123.77895668972953, 125.17962802345912, 133.50662136887323, 130.0714447527369, 137.92440240771506, 138.0961611629537, 138.69133303748268, 150.65931462954214, 148.82958549942015, 151.28956273043522, 152.66133837598784, 157.8123203480078, 159.0754408087928, 169.08804156640107, 159.01645592005988, 166.8292635362502, 169.52798440326868, 169.45152953257423, 175.83740647030834, 174.85265596439754, 185.78636610741637, 195.7785841392439, 186.37378529984588, 179.24829691271964, 183.35265518851097, 185.81536683965197, 193.83162129192166, 199.12116029382435, 193.91789061688024, 197.52994563430187, 192.81192847037426, 207.66972116736997, 215.5499542406581, 214.67884417002796, 217.3857231783676, 218.41905569423596, 213.98647415161096, 210.66741813555007, 213.55963636729456, 215.2502182810251, 220.44253085836343, 225.9228094307061, 227.36264861474473, 230.73779173510465, 226.80066998204552, 233.80960990847015, 233.2424130233894, 243.5154316417323, 241.40796314274795, 245.65653561871758]",0.660034054833603,0.4667644131541938
1860.0,2160.0,83.68846571932527,80.89887640449437,72.72727272727273,133.33333333333334,0.0,65.93005385366055,73.43391207586608,35.95166163141994,63.44410876132931,9.764705882352942,332,352.73566861829454,2042.2443923248989,5659.455944069201,8849.460149870796,24.035666883526527,66.6075021798864,0.3608552504883546,0.1875,11.25,123.3542878087899,133.10543862765542,0.926741154085048,0.9338745194605828,"[4, 5, 6, 7, 8, 9, 10, 11, 12, 13, 14, 15, 16, 17, 18, 19, 20, 21, 22, 23, 24, 25, 26, 27, 28, 29, 30, 31, 32, 33, 34, 35, 36, 37, 38, 39, 40, 41, 42, 43, 44, 45, 46, 47, 48, 49, 50, 51, 52, 53, 54, 55, 56, 57, 58, 59, 60, 61, 62, 63, 64]","[47.06348912165566, 58.07106487964552, 74.59004102797661, 83.64776125835922, 85.7181693427492, 94.73818699694962, 99.1456100055427, 106.0954399426459, 108.5247206828169, 116.17035113038851, 118.42412837891601, 121.8893725697371, 123.82690511703134, 129.83591986079594, 132.8327161029464, 136.91198168259606, 138.92215579739866, 142.11008938749873, 148.19873056996278, 149.40266621374985, 160.2905563031317, 151.91927125420722, 159.5346877802379, 160.9007291022388, 155.51758163890892, 164.66684683867317, 172.12505859608402, 173.80238174450045, 176.4030606761489, 191.54545947417418, 180.24544795071358, 171.785043582497, 176.02795668062865, 183.27632534166466, 201.7009480149601, 209.0076861183008, 209.99964491468876, 189.8543038977113, 189.30546074798002, 197.62410107441278, 199.9285526489413, 200.92826844562978, 213.73241729921804, 221.9172796973224, 229.3059172207238, 227.6541334710128, 226.61078794885137, 212.89127266369235, 209.5467993527543, 207.51531723904708, 219.57473438293582, 219.1523319592229, 223.00584505544725, 239.58161755433275, 245.09618943362815, 235.38817437830863, 225.1408221693352, 218.07567409481277, 230.30896615804883, 240.13723616708242, 243.79071869098638]",0.666277569134996,0.4684236256500493
1920.0,2220.0,83.41411206998355,80.89887640449437,72.72727272727273,137.14285714285714,0.0,63.773925084679675,68.28079109895964,34.83483483483483,63.06306306306306,9.823529411764707,334,351.5008401474569,1681.8056814203082,6089.397636043118,8779.98015719459,19.95384479402767,72.24788015706375,0.27618588601698596,0.1875,11.25,124.60768190002803,133.42054972083065,0.9339466983216402,0.9114482751997627,"[4, 5, 6, 7, 8, 9, 10, 11, 12, 13, 14, 15, 16, 17, 18, 19, 20, 21, 22, 23, 24, 25, 26, 27, 28, 29, 30, 31, 32, 33, 34, 35, 36, 37, 38, 39, 40, 41, 42, 43, 44, 45, 46, 47, 48, 49, 50, 51, 52, 53, 54, 55, 56, 57, 58, 59, 60, 61, 62, 63, 64]","[44.4556540453686, 61.196063423954676, 67.82711699095572, 79.65419750661022, 91.58411768821377, 96.39574695025598, 102.69437291309752, 110.11401592288803, 111.2675741429819, 114.22983824933614, 119.66184833301678, 124.35621239519924, 129.09366262477369, 128.2857779272849, 134.25234584869114, 135.74968578997732, 142.06875318999636, 139.3578567341221, 149.26562110772255, 140.63620304547337, 147.0561374425999, 156.90578385807206, 159.06647154053883, 159.54866045125073, 161.90401061557733, 161.7966267448947, 170.90050464981567, 177.2816300988409, 166.3654643263442, 171.231150569777, 169.39890771249546, 187.9892703100793, 190.52592884227977, 183.13619186532443, 184.07417930825488, 192.88037893600017, 191.32622387506473, 190.4956270144474, 181.64487961448694, 178.5242374714468, 189.6199864630761, 200.8314296988821, 209.86723556206132, 209.59391972120304, 206.15167188074935, 207.93532705505902, 207.73815991705268, 217.20720282728968, 237.70536930216494, 245.00855178266153, 245.23440202147012, 242.73020920738904, 241.05633721984137, 234.46110487526963, 227.78444946285776, 232.4657932724228, 235.52304558525583, 249.9477047012105, 250.49516485490366, 254.04226465201683, 252.68828322057428]",0.7130515555806636,0.501980810693444
1980.0,2280.0,83.19124877773213,80.44692737430167,72.72727272727273,113.38582677165356,0.0,61.851650241483554,66.57376107774607,31.65680473372781,60.946745562130175,9.416666666666666,339,232.1829496209637,2027.4124759473104,6028.694498984534,8861.355236855372,23.494866117652663,69.86411092872837,0.3362937823916613,0.1875,11.25,121.6022208616414,133.27875795298584,0.9123901117426129,0.8952722309039085,"[4, 5, 6, 7, 8, 9, 10, 11, 12, 13, 14, 15, 16, 17, 18, 19, 20, 21, 22, 23, 24, 25, 26, 27, 28, 29, 30, 31, 32, 33, 34, 35, 36, 37, 38, 39, 40, 41, 42, 43, 44, 45, 46, 47, 48, 49, 50, 51, 52, 53, 54, 55, 56, 57, 58, 59, 60, 61, 62, 63, 64]","[43.29119874095143, 56.91793178441102, 65.58671963577976, 78.1831919448616, 90.79812095276179, 95.01249332494625, 98.74593263866998, 105.39140994391053, 112.10972582664178, 114.36151155151782, 120.11029259894332, 132.33936647740896, 127.58479361779479, 132.30421071685433, 133.60759217591695, 138.8234748216889, 145.36253695591972, 149.51909194238735, 148.50215934209749, 155.14298384686674, 156.25203824550138, 159.03296309813334, 162.91135847792117, 165.88729058092113, 170.52838056458162, 171.2819459090309, 175.67627453209815, 177.6325398401098, 177.73217398778343, 188.75544723878738, 171.4242588045148, 179.2051043158268, 188.73197868456063, 185.8874518104393, 174.9082318116729, 184.9950265315874, 193.2806901175142, 190.30427915207423, 181.5586763099369, 184.08291591366157, 202.4537809265827, 203.55882343119706, 197.47528020746412, 198.7698572200714, 205.18848977093958, 203.57545058612823, 206.54314567079552, 199.57640743980193, 203.82484441988012, 207.8044797520936, 205.662999013268, 216.28175376802915, 225.76740146654788, 229.01370115261784, 235.58086150417026, 238.0113765446276, 246.1541568966842, 245.99374676719955, 241.51812367863204, 238.78848362211633, 235.19383770259935]",0.7586206418859356,0.42404751045524075
2040.0,2340.0,83.17749159701685,80.44692737430167,73.09644670050763,133.33333333333334,0.0,63.79134075680527,67.57962430861186,31.845238095238095,59.226190476190474,10.212121212121213,337,224.43474950477926,2255.924376038768,5753.758137979966,8879.711444444605,26.064150870620455,66.47688272454434,0.39207841587008035,0.203125,12.1875,124.77872571939844,133.2776582761997,0.9362313784116135,0.8669555538961958,"[4, 5, 6, 7, 8, 9, 10, 11, 12, 13, 14, 15, 16, 17, 18, 19, 20, 21, 22, 23, 24, 25, 26, 27, 28, 29, 30, 31, 32, 33, 34, 35, 36, 37, 38, 39, 40, 41, 42, 43, 44, 45, 46, 47, 48, 49, 50, 51, 52, 53, 54, 55, 56, 57, 58, 59, 60, 61, 62, 63, 64]","[46.00907495154798, 56.446695071831606, 74.23313341738101, 80.68850319810909, 89.47974399465627, 100.79803100304757, 102.13336709992988, 110.58974153441338, 113.3558307393214, 116.89355257081408, 122.73559774080039, 123.77191574039908, 127.2997680432934, 135.5680662215247, 137.37076490178748, 142.064402941489, 144.9283196592533, 147.88158702386022, 149.97710521895345, 154.54317084955184, 155.81962002276873, 166.39067541665946, 163.96137044037152, 166.4669121736728, 165.30383240393755, 169.90038706280012, 164.3429320736355, 169.47776349998887, 178.54967019485196, 176.42753685850835, 177.09634801932035, 188.90088783438193, 189.56435540370873, 180.12775937506902, 195.13472469806393, 198.8285067419723, 196.72322545250736, 191.83133246635447, 186.2149816664086, 189.00086081457496, 198.49823246407541, 202.65396895572073, 205.01796141903347, 207.6475847140024, 208.75084751616396, 204.24534318118845, 213.16378776742857, 214.2604525055525, 213.94902097147627, 218.5600605454405, 218.77478259955257, 223.75517576230965, 221.99572795886357, 222.24527026702012, 214.29548068716971, 218.1144986834096, 224.62543787135033, 233.9380530253118, 230.43272921060563, 228.4570980552618, 230.17798204796802]",0.7105885343295077,0.4071762355841921
2100.0,2400.0,82.73138054704503,80.0,74.22680412371133,138.46153846153845,0.0,63.605982555690964,71.38663122522124,35.798816568047336,59.171597633136095,9.416666666666666,339,144.60117875463052,1850.735837378317,4646.874652617211,7061.90739947652,26.75515263201944,67.17751830469437,0.39827539491213654,0.1875,11.25,122.3002285151009,125.19454377359902,0.9768814584784766,0.8792981472001289,"[4, 5, 6, 7, 8, 9, 10, 11, 12, 13, 14, 15, 16, 17, 18, 19, 20, 21, 22, 23, 24, 25, 26, 27, 28, 29, 30, 31, 32, 33, 34, 35, 36, 37, 38, 39, 40, 41, 42, 43, 44, 45, 46, 47, 48, 49, 50, 51, 52, 53, 54, 55, 56, 57, 58, 59, 60, 61, 62, 63, 64]","[41.69410697890886, 57.474548609192446, 64.6752571866546, 80.50045721478433, 84.71309373958434, 92.4880822115906, 104.36026840385425, 107.30334413544878, 106.21348416791598, 115.8865243680078, 116.28082233195546, 119.67896488657229, 123.73583268877911, 124.87573830662878, 131.39252173204636, 132.60089569263496, 131.9132328170152, 132.10095937634443, 138.22227412389233, 142.96098124879478, 147.40784351488372, 146.29799435036443, 145.95023983717778, 155.78363915751117, 151.4865884631326, 160.903114917564, 150.4148078887061, 158.9111095062293, 158.26681155485136, 162.3114975596758, 164.3156348375915, 160.69733751512604, 150.8282832280718, 168.18058810909676, 175.40535365607346, 178.4702103148128, 179.70165857868255, 171.94216701214773, 160.5593596982692, 168.0205948492695, 170.11526924902967, 165.7492354554354, 174.52418654614962, 177.81841911357168, 175.76091840440014, 182.87822121886828, 182.40637614183208, 182.98846296323438, 180.5350635161517, 184.40092896597872, 185.7303410835666, 185.61137200986965, 191.4458422490258, 198.1169488559355, 198.2986613722212, 195.61113306073307, 195.91080038647513, 203.86098458884095, 203.696113911222, 201.6697873516724, 205.1606118581893]",0.7379348773853444,0.34118617965405634
2160.0,2460.0,82.75723693380066,79.55801104972376,74.22680412371133,138.46153846153845,0.0,64.37493181415822,73.93551269512831,39.263803680981596,60.73619631901841,8.605263157894736,327,144.69503559686748,1924.676843375748,5291.029596798844,7816.5950724164495,25.087355598204987,68.96635216055633,0.36376225234880705,0.171875,10.3125,130.37616417675505,130.18036467113578,1.0015040632749332,0.8245049682248594,"[4, 5, 6, 7, 8, 9, 10, 11, 12, 13, 14, 15, 16, 17, 18, 19, 20, 21, 22, 23, 24, 25, 26, 27, 28, 29, 30, 31, 32, 33, 34, 35, 36, 37, 38, 39, 40, 41, 42, 43, 44, 45, 46, 47, 48, 49, 50, 51, 52, 53, 54, 55, 56, 57, 58, 59, 60, 61, 62, 63, 64]","[52.31168474673773, 61.89846024250264, 75.86115728821899, 86.22229090688022, 92.26578468376826, 96.56572241802631, 101.38829384542663, 110.04063958198174, 108.62124775585025, 107.86440120699591, 118.45896070227263, 119.45799494401523, 127.96955175586338, 131.77279931217794, 132.79184902165414, 136.3481464426639, 137.73697921382882, 145.5415372869115, 143.65288116790262, 148.1835251385254, 144.33729720903074, 154.87277483840177, 155.81118404939522, 155.09118165870814, 161.65342828690888, 164.00057793085884, 161.5692324788176, 161.55246263994286, 164.29146905997888, 159.27437421588633, 168.1939132995393, 172.95457582853544, 173.37969659340075, 175.19355085354456, 169.17107246686558, 182.44016585314864, 174.92034403077264, 168.4282612148082, 174.31675991784485, 179.89024401716082, 171.87451222529, 175.01712742497466, 177.90366490085273, 185.51674302789445, 185.23387594948827, 185.947714269269, 185.41116399857216, 182.7833636315338, 187.4645941621544, 187.96935086549678, 192.51910451753182, 189.95867912628054, 195.0082063422348, 193.17852852329682, 194.26490140225968, 190.48961566651002, 188.50831661857845, 184.48029069333953, 183.73314179904511, 194.89092103023378, 200.01589606106162]",0.5954427478743214,0.29061263094886103
2220.0,2520.0,82.59995317356896,79.55801104972376,74.22680412371133,113.38582677165356,0.0,59.50636948617822,68.03737462971775,34.650455927051674,55.92705167173252,8.048780487804878,330,175.78386192614178,1825.0377891309436,5003.313488379739,7593.7241177150645,24.60302626064821,67.44882428077227,0.3647658283594697,0.25,15.0,127.83304921486526,127.17048503155134,1.0052100468371221,0.8023027515257345,"[4, 5, 6, 7, 8, 9, 10, 11, 12, 13, 14, 15, 16, 17, 18, 19, 20, 21, 22, 23, 24, 25, 26, 27, 28, 29, 30, 31, 32, 33, 34, 35, 36, 37, 38, 39, 40, 41, 42, 43, 44, 45, 46, 47, 48, 49, 50, 51, 52, 53, 54, 55, 56, 57, 58, 59, 60, 61, 62, 63, 64]","[46.24386029491363, 59.70413183081428, 65.78608665672807, 81.95608240442594, 88.26227248746639, 95.16619350080744, 99.91173767985075, 101.83964370360941, 108.93396720817404, 112.4558681207406, 115.7127737297204, 121.75147174049094, 123.25518585837405, 130.78901168901174, 131.86813268354152, 135.22930738856033, 140.553438408017, 145.1372409433497, 146.22235539125236, 145.80675150286973, 150.00659244955216, 157.70713547310564, 154.13579532973387, 156.73235009396345, 163.5182366745457, 162.64458719119278, 162.88176984617795, 164.99440179181025, 168.08152962355143, 164.8519952292735, 167.74714787466968, 169.76991630474936, 174.64497862779064, 170.85379116238303, 171.87643243204803, 164.782967492912, 177.38436893544343, 180.99999139598066, 180.68150058288558, 179.43581890582374, 178.6113117907167, 189.0919215502614, 185.740699512906, 185.8405919300006, 181.16354519972919, 182.86281856263258, 187.44954105690732, 192.52109515616024, 190.94540825738056, 189.11802876755934, 185.07061528063022, 187.51616588952461, 187.9282177572383, 194.39955760867065, 197.80774349722842, 201.42727329736945, 209.5818063986666, 209.4087604520137, 205.1671376830532, 205.0932630019682, 201.41490405671513]",0.6765285306200515,0.32465484080979967
2280.0,2580.0,82.60434773016755,79.55801104972376,75.0,114.28571428571429,0.0,58.30788659336055,67.96916649696051,36.08562691131498,56.574923547400616,8.864864864864865,328,124.36617669982515,1677.289160423134,4607.385502696303,6921.171935226335,24.677609159552564,67.7875117575104,0.3640435903272175,0.25,15.0,126.10677653935687,122.97554088072498,1.0254622637656776,0.893156770712443,"[4, 5, 6, 7, 8, 9, 10, 11, 12, 13, 14, 15, 16, 17, 18, 19, 20, 21, 22, 23, 24, 25, 26, 27, 28, 29, 30, 31, 32, 33, 34, 35, 36, 37, 38, 39, 40, 41, 42, 43, 44, 45, 46, 47, 48, 49, 50, 51, 52, 53, 54, 55, 56, 57, 58, 59, 60, 61, 62, 63, 64]","[44.43412881175952, 57.40096202260903, 72.17587440536559, 77.87700536614985, 86.42670307446681, 89.75789621693858, 95.71672336998627, 101.43238639779338, 108.47808759208527, 110.31477639381293, 112.36589712591919, 117.74625789511059, 125.24459561670324, 123.50073737203321, 127.40569494509654, 127.57559440927153, 129.38203124395335, 130.57323570333213, 134.28317288588042, 135.57505142469765, 135.58344707224512, 140.22722885944617, 140.52793099811998, 145.25095540698013, 147.3517186796046, 154.43850170014647, 144.7614480146635, 148.16800538920853, 150.14018073616572, 156.42000297857498, 160.42501956624292, 153.68482901562234, 148.63988576041584, 164.77019145419172, 162.92732052772925, 160.87476903959634, 162.0729924888414, 168.81967840377953, 165.17554023022248, 165.61974941928003, 164.48162804126594, 169.2310596974386, 172.98461538478648, 174.19484122198403, 170.06774497673314, 171.07132306739265, 171.5582087706925, 179.87041805500587, 181.8808655970329, 183.486490965513, 189.73747108398024, 192.0220185786288, 184.5351913498994, 178.34352675094107, 176.7609624156261, 174.80745596598072, 172.4835251950258, 177.29480898831312, 176.72678021169278, 178.21166405310592, 184.3094611134219]",0.6784788215788858,0.30339072286735036
2340.0,2640.0,83.38185461681998,80.89887640449437,74.61139896373057,135.8490566037736,0.0,61.54219506601853,70.33390407428428,35.670731707317074,58.84146341463414,9.969696969696969,329,343.4805983306392,1905.1193118497267,4616.404247539905,7603.247125798052,26.242156750381504,63.58888030453438,0.41268468047722867,0.25,15.0,126.43816226612076,127.76354936187747,0.98962625019126,0.9045482798147972,"[4, 5, 6, 7, 8, 9, 10, 11, 12, 13, 14, 15, 16, 17, 18, 19, 20, 21, 22, 23, 24, 25, 26, 27, 28, 29, 30, 31, 32, 33, 34, 35, 36, 37, 38, 39, 40, 41, 42, 43, 44, 45, 46, 47, 48, 49, 50, 51, 52, 53, 54, 55, 56, 57, 58, 59, 60, 61, 62, 63, 64]","[48.47165337715775, 57.16314821537264, 68.72167881142359, 77.46057749982988, 86.11169149670408, 90.08669908197707, 99.67462628919488, 96.55270637783333, 109.43018619488144, 111.16675905255514, 117.14567776033049, 114.30983394105007, 123.85403210520509, 123.28140937493318, 127.95621184895955, 129.1546045512256, 141.32809993517571, 137.70250695291816, 146.77591433010826, 145.83044922524311, 143.3149654334471, 159.79598177670192, 160.24150114848484, 163.25227193715685, 165.4840093677523, 173.98303421171804, 171.47178974564244, 173.58083436916593, 173.0589823959855, 179.95011167154232, 185.70973058981556, 193.86966297010994, 206.97203286855674, 189.3130738198665, 191.93065739121357, 194.19605990480383, 206.91048469693192, 195.1273994993633, 201.42983227169333, 197.68273100134303, 207.99729767578572, 221.47172690147684, 218.19487710120728, 229.61972210197803, 232.0359724320712, 226.01490107711788, 225.35866384476623, 231.93989119551324, 231.03592560648946, 226.90379802644586, 230.5348816973108, 228.63473574780647, 228.88218574345507, 229.8895843653149, 232.80530899392502, 249.02358932706713, 257.73477597046633, 260.1294132766945, 258.6650440930839, 258.19137198359533, 257.695025684403]",0.6563483491762807,0.542876506417263
2400.0,2700.0,83.70638633507852,80.89887640449437,74.61139896373057,114.28571428571429,0.0,60.8615073655132,69.52851461768729,31.64179104477612,56.4179104477612,11.2,336,493.9170024462625,2049.4671604559876,4192.964234007922,7650.25368401396,28.63849552711406,58.590930256363976,0.4887871792068607,0.25,15.0,121.75996089240468,131.82809197334734,0.9236268163315433,0.9184889029112806,"[4, 5, 6, 7, 8, 9, 10, 11, 12, 13, 14, 15, 16, 17, 18, 19, 20, 21, 22, 23, 24, 25, 26, 27, 28, 29, 30, 31, 32, 33, 34, 35, 36, 37, 38, 39, 40, 41, 42, 43, 44, 45, 46, 47, 48, 49, 50, 51, 52, 53, 54, 55, 56, 57, 58, 59, 60, 61, 62, 63, 64]","[43.708163454068526, 58.37775269755717, 71.53802332304076, 78.2924532481815, 83.31200372986432, 89.89360341114441, 100.27868342775372, 103.6307024655103, 106.97113254274507, 111.94744611329122, 114.12111444672124, 124.98787499728753, 124.96872902548365, 124.13121994870245, 134.19242427828354, 138.36358178043918, 150.57927872866355, 143.457719152606, 155.11106544028115, 157.02383724904524, 164.89035802091163, 162.22066212213304, 167.641405077247, 172.32717174373627, 173.26501718313924, 180.98873932185464, 182.85846312915626, 186.8322499934805, 194.2999236768049, 197.69041245291524, 202.34097024696533, 198.19286204982396, 206.31410835291783, 211.6316632027425, 207.19014149544012, 215.05132559639318, 208.90586394615895, 208.87383340844394, 218.51866172134456, 215.5556093766922, 228.34347426451163, 241.24407320163118, 237.22920545492485, 225.2344131432085, 233.7071468377404, 244.90885257620783, 249.20353129284112, 249.7297929294433, 252.16648809149956, 253.9467585430805, 264.80920401083387, 254.16815699635646, 254.20042039885797, 254.77226996874248, 250.83473813840615, 251.3431087572544, 249.81622456869812, 261.0193851574165, 262.480085437597, 264.1012570143525, 256.12474321449037]",0.7020972728430701,0.5472732713043283
2460.0,2760.0,83.34732130054245,80.89887640449437,74.61139896373057,114.28571428571429,0.0,59.512259795723644,66.84487664336888,28.915662650602407,58.13253012048193,10.741935483870968,333,636.1484451919056,1782.8398478818176,5169.186377280319,8537.754643487166,22.56300558570558,65.41943811874035,0.34489757531625875,0.1875,11.25,117.8944651799794,134.00348751272188,0.8797865441284644,0.9026488085154971,"[4, 5, 6, 7, 8, 9, 10, 11, 12, 13, 14, 15, 16, 17, 18, 19, 20, 21, 22, 23, 24, 25, 26, 27, 28, 29, 30, 31, 32, 33, 34, 35, 36, 37, 38, 39, 40, 41, 42, 43, 44, 45, 46, 47, 48, 49, 50, 51, 52, 53, 54, 55, 56, 57, 58, 59, 60, 61, 62, 63, 64]","[44.46764013919041, 52.94991634567087, 64.03043028847412, 74.00584635450925, 80.81907364459933, 90.065112697107, 95.5512623608958, 104.7156216501432, 110.83293753446159, 113.0172029007863, 117.29423431177442, 125.67400474437991, 124.72439542590634, 131.7457364119154, 140.18696089665772, 142.97865796129457, 151.65850988815356, 155.99628261770255, 155.48985247410994, 163.70700060355614, 157.67175798211548, 175.30071879113416, 183.86412790021166, 176.8339659438407, 189.19502997231248, 184.12102131115202, 200.33154139430619, 198.23559853699015, 194.9732570895308, 195.03189894930574, 208.10357768025915, 202.6315775008517, 203.55467408912958, 216.97719592285475, 223.51140398793777, 225.86200794233028, 226.2759365022883, 224.23036988518453, 226.67670813743598, 224.0664202048592, 233.02144348786234, 248.0012552840654, 256.9766492480769, 264.8034871153755, 266.2704101952919, 251.11762367290015, 249.48830856707224, 256.9254915859318, 258.6610697167548, 254.32794496786252, 267.9658744379343, 272.0087430205859, 267.84729958017334, 264.02451621904214, 269.784304977609, 270.5921814192693, 275.60572023621273, 282.97783192942006, 282.05271178143147, 283.4574556778268, 289.9759555224262]",0.7615514651808196,0.5765999854988346
2520.0,2820.0,82.78388149498845,80.44692737430167,74.61139896373057,114.28571428571429,0.0,56.92802174679427,65.79812991857379,29.96941896024465,57.49235474006116,9.647058823529411,328,664.4029432760661,2520.5874005780624,5560.202777324366,9912.213800080683,27.256044047693656,60.12452961484525,0.4533265245033021,0.1875,11.25,121.59582738383475,138.0444151337561,0.8808456848182975,0.9156772093220548,"[4, 5, 6, 7, 8, 9, 10, 11, 12, 13, 14, 15, 16, 17, 18, 19, 20, 21, 22, 23, 24, 25, 26, 27, 28, 29, 30, 31, 32, 33, 34, 35, 36, 37, 38, 39, 40, 41, 42, 43, 44, 45, 46, 47, 48, 49, 50, 51, 52, 53, 54, 55, 56, 57, 58, 59, 60, 61, 62, 63, 64]","[44.44475131497493, 57.733165089665015, 69.48815162130823, 78.51728474661073, 92.66012274710079, 92.88967595432484, 101.65515868189512, 109.31961576793503, 115.20026311207853, 115.27254473928008, 120.33805497909765, 127.00779930353987, 135.45984067601364, 137.1384038196348, 144.565079838766, 144.58754105459482, 149.96037015497467, 158.75116394233206, 167.9975365423967, 163.09289290117383, 176.9404732886565, 167.8082310348259, 171.9366077093718, 184.42279598904253, 186.30223487565283, 192.29721775584517, 195.37225004824887, 204.75491066684742, 198.78661989644422, 203.19115291210312, 217.53493096482202, 217.5182241634576, 226.399712468648, 226.26906731515382, 219.06524044594818, 225.92998317828923, 245.05383265501027, 241.70813899036276, 229.8520242600216, 242.69406008605588, 238.01122908195535, 240.20258808401292, 254.6973972782541, 258.52495320435173, 256.8993930053786, 271.98069432743165, 280.12671788771667, 277.2139109916482, 264.4047214896425, 267.8958811674189, 274.7958773735644, 275.6361607019887, 277.77560368600683, 288.8687491969272, 292.2420023035389, 295.00058654622586, 304.22512051507726, 311.94215617563515, 318.36451047913283, 317.0988782591855, 314.85612578589297]",0.7470516898860156,0.615443822414885
2580.0,2880.0,82.83270528665295,80.44692737430167,74.61139896373057,118.03278688524591,0.0,57.122981006936854,66.5099078599909,29.906542056074763,54.51713395638629,8.473684210526315,322,403.18901412839574,2392.4769582062836,6043.668907670036,9808.980274250982,25.43621150035072,64.25476326795784,0.39586499438610623,0.21875,13.125,125.06885492749296,140.71797471867816,0.8887908966678155,0.8420544794147872,"[4, 5, 6, 7, 8, 9, 10, 11, 12, 13, 14, 15, 16, 17, 18, 19, 20, 21, 22, 23, 24, 25, 26, 27, 28, 29, 30, 31, 32, 33, 34, 35, 36, 37, 38, 39, 40, 41, 42, 43, 44, 45, 46, 47, 48, 49, 50, 51, 52, 53, 54, 55, 56, 57, 58, 59, 60, 61, 62, 63, 64]","[44.61701237841854, 58.690850997627, 67.61254124925621, 84.61879490832314, 88.56448116194174, 94.78768094588293, 99.52920041948043, 108.04435253952485, 112.843382216572, 113.54859290202288, 123.66079043877379, 122.51165849136555, 134.63396892857543, 140.70152987035448, 141.8268221418958, 143.3610514376218, 142.01520596687934, 158.53405216808773, 161.92167390305795, 159.4496554135255, 169.28704054229183, 172.36108689882096, 171.71107569350528, 175.40545688173773, 184.30517131158632, 193.69442296207518, 178.21049079926507, 183.43390611020138, 195.81280000633026, 215.02207061689515, 203.8487829934418, 201.6254688677149, 207.55877200977227, 215.6309292829983, 214.10200587404415, 223.89587888863747, 223.81508008379427, 236.27012869243376, 220.46957098743096, 226.65162000845714, 226.31601255901577, 221.87007466780554, 235.13710059628158, 232.949272533281, 230.93372302383486, 247.74913336977994, 239.48780220412596, 244.356290606799, 257.80291153971785, 270.7263472549877, 273.1934935238781, 268.7435016508385, 263.69338755187704, 260.3701839488961, 253.617209591433, 239.63645047998833, 237.42502408955957, 244.68837226334986, 245.28940606238857, 247.23889291811872, 249.8653246110064]",0.72953606067292,0.4892539620931332
2640.0,2940.0,82.7227239442913,80.44692737430167,74.61139896373057,118.03278688524591,0.0,55.15459243009635,65.35285446488321,29.595015576323984,54.82866043613706,9.2,322,304.65054744132584,2441.1521418219777,5981.39050364601,9499.986190296078,26.547721982490962,65.04809325034108,0.40812452227186163,0.21875,13.125,124.95808120655313,138.37866502251393,0.9030155131661568,0.833733149573306,"[4, 5, 6, 7, 8, 9, 10, 11, 12, 13, 14, 15, 16, 17, 18, 19, 20, 21, 22, 23, 24, 25, 26, 27, 28, 29, 30, 31, 32, 33, 34, 35, 36, 37, 38, 39, 40, 41, 42, 43, 44, 45, 46, 47, 48, 49, 50, 51, 52, 53, 54, 55, 56, 57, 58, 59, 60, 61, 62, 63, 64]","[45.98524404992289, 59.65401459056182, 73.28318840629771, 83.5803978838031, 90.13265401116105, 100.34715890461248, 105.66003908152032, 114.7496512114559, 116.61987152131444, 120.05316236775053, 125.23094103601558, 131.98103453065912, 132.26535001554035, 146.273248477878, 142.2345716453326, 141.5717727948681, 148.64366444637722, 153.1801736982221, 150.5831699061944, 159.99859443256403, 159.24240034998547, 153.42840372973228, 172.29999549974912, 171.21274954422535, 181.27372264398522, 182.3100639694308, 171.77295483878555, 174.7438936533945, 186.47633061873236, 181.31808951926214, 192.8437488519628, 201.1457723637267, 201.90352061193695, 198.00943237232167, 203.85210576235423, 204.57994042799936, 210.6381309722216, 213.2434578775792, 215.8666667574461, 215.81324132305082, 222.5522065134374, 217.54893291559836, 217.82965457949823, 224.35608364577058, 225.2954619220965, 230.65897651184042, 237.99359034053714, 234.69730871297526, 232.56572306975758, 230.3890415199135, 229.0060779227885, 232.8543798070202, 240.5559169514736, 244.65974245043068, 255.34502279551253, 262.5774273140211, 267.14170971951216, 276.45803467779325, 274.0457224366097, 271.09647362146234, 260.8204462672591]",0.731578954906417,0.5002694437027456
2700.0,3000.0,82.8991456955921,80.89887640449437,74.61139896373057,118.03278688524591,0.0,54.644442637816766,62.53297741103401,30.0,56.875,7.465116279069767,321,448.47449001345115,2725.376298789218,5374.58831207633,9428.522168209336,30.349240855442243,59.85033158706012,0.5070855925216606,0.21875,13.125,126.7962113088526,138.59771161790886,0.9148506842480123,0.8458971719940146,"[4, 5, 6, 7, 8, 9, 10, 11, 12, 13, 14, 15, 16, 17, 18, 19, 20, 21, 22, 23, 24, 25, 26, 27, 28, 29, 30, 31, 32, 33, 34, 35, 36, 37, 38, 39, 40, 41, 42, 43, 44, 45, 46, 47, 48, 49, 50, 51, 52, 53, 54, 55, 56, 57, 58, 59, 60, 61, 62, 63, 64]","[46.66803204279932, 59.118898930633975, 70.42599053902909, 79.11483947813487, 90.1657473000358, 96.4994203784952, 98.88918910926311, 103.83739459924665, 118.88915889360425, 121.83011152413292, 125.14178207980652, 131.86533477378268, 128.08624735043037, 149.722374789672, 156.39085778582074, 153.29490984112138, 154.7542296893183, 159.1183827138675, 167.00221061467536, 166.2063003348293, 179.39133263983905, 173.78229844249213, 186.1351368211092, 173.50406736009293, 188.4784311405804, 184.82695341987892, 204.34439638703984, 211.52142382069016, 203.47643537505883, 205.04199526857494, 209.559679152312, 204.6147237872984, 202.65895516345043, 225.39321165243015, 216.18746301093006, 231.56090186674092, 222.54712784421244, 235.93025977770813, 244.07407682051448, 243.15576548966519, 241.423971322998, 244.72201511178343, 252.7987335223609, 252.55287666126372, 255.74178732096283, 255.206739609797, 249.25493518907376, 247.4374025939776, 265.4230972958303, 281.3190054112525, 282.8842785169291, 280.7996531813357, 275.41914913909693, 277.78331966953675, 283.7596739538013, 278.95182054689093, 270.3708514207023, 272.36132119828727, 276.827677281136, 283.0047662309396, 284.7459269444159]",0.7294191907810964,0.5358663540048632
2760.0,3060.0,83.5572866705756,80.89887640449437,74.61139896373057,139.80582524271847,0.0,58.54659402781238,65.89616812369715,30.83832335329341,56.886227544910184,7.444444444444445,335,438.32747276626225,2449.6876327683217,5118.574358537376,8744.5151376547,29.49232224939411,61.62363005803969,0.4785878764626008,0.203125,12.1875,123.73403873373867,133.8411155870413,0.9244845142767085,0.8368028904002208,"[4, 5, 6, 7, 8, 9, 10, 11, 12, 13, 14, 15, 16, 17, 18, 19, 20, 21, 22, 23, 24, 25, 26, 27, 28, 29, 30, 31, 32, 33, 34, 35, 36, 37, 38, 39, 40, 41, 42, 43, 44, 45, 46, 47, 48, 49, 50, 51, 52, 53, 54, 55, 56, 57, 58, 59, 60, 61, 62, 63, 64]","[44.428180654789905, 56.45776328584509, 69.25376292377254, 81.35947776503133, 89.09294411938625, 98.68577442701707, 107.18688958786412, 103.24262192824783, 111.3089345707366, 114.42907769902489, 123.79071334005508, 130.18704527215232, 129.25665270520128, 142.89547692747814, 147.42386273093192, 144.90400622048622, 148.89454050668067, 158.84491822316642, 159.54797026175095, 163.67941618465727, 156.42919160793306, 176.25496860553918, 172.90552623871736, 166.1291130165112, 178.27514860352002, 165.09735364322722, 193.64967017543765, 201.88559865903164, 185.0056038921048, 201.1872944221264, 194.0549411133045, 195.33031032240896, 211.33094188098912, 206.82821317281693, 203.4330999747351, 195.32834412980384, 204.4784953304847, 215.23781600953285, 226.0887675796267, 223.3739660686587, 227.40819004506457, 226.12116445553772, 232.69103059771618, 245.14934148450843, 254.93317598834838, 253.33369606736392, 256.80429657701217, 248.1074007613896, 237.47324102440717, 228.26572633258857, 230.15083435570315, 249.24455173461436, 262.7570891503495, 265.5308750967082, 262.05363584198835, 252.68506244074493, 248.9675883113516, 248.0381200644202, 247.17103440773508, 251.5345257799132, 260.2866598500439]",0.7428602714322661,0.49026070076483363
2820.0,3120.0,84.08777431488647,80.89887640449437,74.61139896373057,134.57943925233644,0.0,60.71098973282144,67.50115477302305,31.195335276967928,57.434402332361515,8.6,344,386.90599348355204,2003.5742965385618,4662.20525500994,7635.832198822805,27.639601228976694,64.31580516816346,0.4297481957461116,0.203125,12.1875,119.40061305492091,128.15805885238234,0.931666834876544,0.8699656464776652,"[4, 5, 6, 7, 8, 9, 10, 11, 12, 13, 14, 15, 16, 17, 18, 19, 20, 21, 22, 23, 24, 25, 26, 27, 28, 29, 30, 31, 32, 33, 34, 35, 36, 37, 38, 39, 40, 41, 42, 43, 44, 45, 46, 47, 48, 49, 50, 51, 52, 53, 54, 55, 56, 57, 58, 59, 60, 61, 62, 63, 64]","[42.812156275412526, 58.93868424832568, 64.90192881030823, 78.55809637422112, 83.42711747431787, 88.22872642282829, 98.48820814701402, 103.55249469180218, 102.13087740074648, 113.52929576300873, 116.9037642074998, 119.58062445986755, 134.43722144473807, 131.76923398599337, 124.33859985176935, 141.6836252027309, 144.83725083939095, 148.26889544642307, 148.01139032781123, 152.34452757966318, 162.12394816268497, 148.17533686834253, 155.22108197438166, 172.77614702048234, 165.76468579224488, 155.8247875376142, 176.2038125843325, 182.79472116433823, 178.28808064607756, 180.27317641185294, 182.3363751370221, 184.81796231072983, 191.27103543482087, 185.02827614112311, 195.0071527130641, 198.3017661692588, 200.9837556249575, 203.38690309238777, 204.99250288672283, 212.4144735437284, 213.11243923610135, 219.3922302995006, 211.3029882986219, 218.43271928345624, 212.39800653262876, 218.73153263221144, 226.39789641383862, 234.73786557002856, 230.47420146517527, 238.70705197045834, 243.35247134956398, 243.38999975717428, 237.57051485145504, 239.22374450494786, 248.96054761032073, 251.4582362761099, 255.20708359700666, 264.80804604897077, 277.11228812436156, 278.83114313003495, 271.35246540587275]",0.7336790883189118,0.5356924481723369
2880.0,3180.0,83.67190836583241,80.89887640449437,74.61139896373057,114.28571428571429,0.0,55.638631045642995,64.02373843104867,29.941860465116278,53.48837209302325,8.214285714285714,345,371.69721118719195,2014.291597335431,4773.229684741482,7776.423699289655,27.20278190655512,64.46193107079463,0.4219976264235701,0.1875,11.25,116.49001583117548,125.32523460394934,0.9295016777690881,0.8454701540645239,"[4, 5, 6, 7, 8, 9, 10, 11, 12, 13, 14, 15, 16, 17, 18, 19, 20, 21, 22, 23, 24, 25, 26, 27, 28, 29, 30, 31, 32, 33, 34, 35, 36, 37, 38, 39, 40, 41, 42, 43, 44, 45, 46, 47, 48, 49, 50, 51, 52, 53, 54, 55, 56, 57, 58, 59, 60, 61, 62, 63, 64]","[39.20359784397507, 52.25892056392232, 66.60861167699699, 75.44640020308647, 79.74399302967656, 88.22124602928166, 91.66419786734532, 96.72292021395572, 104.9045808043279, 113.61191512531283, 111.46312687666232, 120.48582999210635, 120.78864064350128, 128.28628518786894, 128.38960386976058, 134.4430825193167, 138.31040593302785, 142.03202492964633, 151.06156762929297, 149.15650164241933, 163.0373450795117, 165.4157335465758, 162.73992897577048, 170.36611525115578, 166.9410927956847, 154.7054589987236, 178.64993072230385, 171.0141317512986, 188.99119382412522, 199.17225740723327, 190.7606514489462, 190.66354806621607, 202.01618439528332, 198.43267666350513, 214.59884973153723, 212.85296885040117, 219.04035533093034, 202.76247165196187, 204.09221628601114, 211.72280583781404, 217.3111474895239, 224.6617905307147, 212.22094329339984, 206.3955060608936, 205.36035424726148, 210.67770536891936, 222.31226488616642, 230.80181089414316, 231.05138971476254, 242.4457612195184, 240.27782353451485, 238.0498051166105, 245.40395573492646, 252.28969962235578, 247.98241982318814, 245.1350752712273, 248.74575898339313, 248.07890059358553, 248.24836957518497, 260.5843168454222, 258.66579471655064]",0.7632481631436262,0.5259081555616897
2940.0,3240.0,84.60113004221988,80.89887640449437,75.0,137.14285714285714,0.0,63.540208113297574,73.18522999792721,34.5821325648415,53.31412103746398,8.487804878048781,348,254.30531133967918,1672.662893991711,4662.416148939096,7076.72681656236,24.517143842714187,68.33960853004957,0.3587545256706257,0.1875,11.25,114.67409379606248,122.8180097193364,0.9336911912032739,0.8144001748624659,"[4, 5, 6, 7, 8, 9, 10, 11, 12, 13, 14, 15, 16, 17, 18, 19, 20, 21, 22, 23, 24, 25, 26, 27, 28, 29, 30, 31, 32, 33, 34, 35, 36, 37, 38, 39, 40, 41, 42, 43, 44, 45, 46, 47, 48, 49, 50, 51, 52, 53, 54, 55, 56, 57, 58, 59, 60, 61, 62, 63, 64]","[41.24307656369135, 53.0994355310503, 65.94134869798968, 75.34293291393661, 81.8819669542975, 86.55691345276112, 91.68267825333253, 103.04258300059578, 104.34751779723545, 108.7682385415556, 111.2318560326238, 117.56468538295448, 119.18753524237415, 124.4606938110194, 124.77600121807666, 127.53530747103125, 139.09342828914126, 134.9764698744807, 139.58553689419278, 146.90847438810002, 145.3187977178642, 149.737314496879, 153.11961326375726, 155.33045750425242, 161.8923702876812, 151.28147123384548, 159.1387249171233, 176.41366501539156, 165.71669169178566, 176.88169178276837, 175.25795199908885, 179.2621123336215, 185.04539495842042, 182.56760801636753, 182.8888870226394, 189.48838584688102, 187.22198142655492, 199.65303519252913, 197.77992838961876, 199.45709394885472, 197.79591347963844, 204.8795330201903, 207.28814648433035, 209.70917209867073, 210.05058378866158, 210.05303292977683, 206.27398042829586, 219.43020406416093, 218.85153562506088, 220.8150740096955, 225.38397643335873, 214.0881219885521, 223.50463597589433, 230.85726945755496, 235.28431831428335, 238.26990137502852, 234.88008313181686, 235.93811909548253, 249.81758195789664, 248.8084481836073, 243.5369589154587]",0.7300815893971231,0.5200822547210422
3000.0,3300.0,84.73549096046905,80.89887640449437,75.39267015706807,139.80582524271847,0.0,65.27832668916972,73.94492552903311,35.63218390804598,51.14942528735632,7.270833333333333,349,247.4717328778898,1431.3020657030586,3779.829912166137,6026.59256295986,24.76677868115724,65.40492963031758,0.37866837899137396,0.1875,11.25,115.31598685484657,123.11420513811127,0.936658663600057,0.7565679795007578,"[4, 5, 6, 7, 8, 9, 10, 11, 12, 13, 14, 15, 16, 17, 18, 19, 20, 21, 22, 23, 24, 25, 26, 27, 28, 29, 30, 31, 32, 33, 34, 35, 36, 37, 38, 39, 40, 41, 42, 43, 44, 45, 46, 47, 48, 49, 50, 51, 52, 53, 54, 55, 56, 57, 58, 59, 60, 61, 62, 63, 64]","[41.13334289433974, 54.9017583104884, 62.77441923066624, 74.83828702653277, 80.90869363030114, 88.48601365305399, 96.78879579429623, 102.60919201590927, 103.19375607397774, 111.05949083721566, 115.16467250642737, 116.69052476825094, 119.79217140752014, 121.88342572737247, 125.14504063667185, 133.783485168716, 125.83089036489322, 127.16161037351739, 134.46030514783263, 149.23215584667614, 150.95629591171817, 150.7265500894704, 151.799943584471, 150.1408262533579, 158.24011272652402, 159.35572356963013, 160.921564319329, 167.03380640731302, 173.1484580033665, 169.6718022839412, 171.53491480925666, 175.25539793409288, 179.97714962536529, 184.27644586327742, 180.21607191830304, 180.39303654886015, 181.65198991393282, 185.3378813658059, 192.72545452928452, 188.73562598513908, 182.78193471848564, 188.804984790029, 196.14812008642272, 205.6020102753591, 214.2109655520719, 214.64550074446092, 208.99210278117587, 207.25387500120962, 206.91374552970763, 212.83758349727398, 215.03962506887282, 219.15116389266805, 221.44530894586728, 222.26438646474705, 219.64039142468485, 225.21966826568473, 225.61355737743727, 220.83586040475652, 214.8727629136143, 218.45759402823785, 229.14641179561588]",0.7420752618226755,0.47588975736638456
3060.0,3360.0,84.22382286521535,80.89887640449437,75.78947368421053,116.1290322580645,0.0,59.67071057934488,70.5111366547924,34.42136498516321,51.632047477744806,7.3478260869565215,338,255.83784292682495,2481.6870747306343,3758.642947769442,7080.455929142367,36.36375022571857,55.07477342008634,0.6602614585148041,0.3125,18.75,124.24763958737044,128.41436842516296,0.9675524718231138,0.7295330130426124,"[4, 5, 6, 7, 8, 9, 10, 11, 12, 13, 14, 15, 16, 17, 18, 19, 20, 21, 22, 23, 24, 25, 26, 27, 28, 29, 30, 31, 32, 33, 34, 35, 36, 37, 38, 39, 40, 41, 42, 43, 44, 45, 46, 47, 48, 49, 50, 51, 52, 53, 54, 55, 56, 57, 58, 59, 60, 61, 62, 63, 64]","[43.792644456478484, 56.84459824026081, 68.3253752383969, 78.1040128578643, 83.53639939244594, 92.81596198774152, 96.41755358951706, 105.75288979567486, 109.48390084926126, 116.02399771515375, 119.45535561367359, 123.33361448906317, 123.71365193234907, 128.24946093727067, 134.36592774588, 133.7562076784474, 140.42987017742269, 141.145539346495, 148.54569055666974, 155.72744837168395, 159.35072904259658, 161.18168410297548, 168.37358061775043, 158.20080687356204, 179.88048209927504, 174.39240805064023, 174.3218758533498, 181.50457195798248, 176.3198038831741, 185.9558489199896, 189.2759513137256, 188.77367764761348, 185.71880760394365, 192.0773512381187, 192.62856864619792, 191.10757200920696, 196.60610182870747, 195.77334428620048, 206.31819869846578, 197.655314737407, 198.10193125030565, 205.98663580573782, 210.66618047156686, 224.40709301163878, 217.94402646088759, 224.2976308198417, 233.0350060617538, 229.70961639041874, 217.85697982132268, 218.9766993451462, 222.2911418015709, 231.22937204943892, 229.3566997437018, 230.32803053460097, 233.23170958732607, 235.85539763105496, 236.5506658077758, 240.7256382305489, 245.50950360631373, 252.085714080927, 247.67902353873123]",0.7281495879491197,0.47836207386899926
3120.0,3420.0,84.06850242683856,81.35593220338983,75.78947368421053,135.8490566037736,0.0,57.173903327126084,62.982383885763376,30.149253731343283,52.537313432835816,7.636363636363637,336,309.72385430443194,2941.9924750669525,4102.678994765878,8269.621615457512,36.960179179999564,51.54185540910213,0.7170905836942866,0.3125,18.75,129.78974090958366,139.62619546440416,0.9295515105736145,0.7304902306685599,"[4, 5, 6, 7, 8, 9, 10, 11, 12, 13, 14, 15, 16, 17, 18, 19, 20, 21, 22, 23, 24, 25, 26, 27, 28, 29, 30, 31, 32, 33, 34, 35, 36, 37, 38, 39, 40, 41, 42, 43, 44, 45, 46, 47, 48, 49, 50, 51, 52, 53, 54, 55, 56, 57, 58, 59, 60, 61, 62, 63, 64]","[48.59924261617281, 56.8744136890584, 70.68986907389588, 78.3608663668653, 84.3622937122853, 95.44989027446805, 106.66121306364754, 113.5568608441369, 116.9862613596649, 121.12678684796083, 126.13387305512437, 133.60313199359214, 141.47814321362995, 144.47595514001216, 145.921921274232, 153.38144795437577, 160.16349022332818, 160.80144002078745, 164.55452643627058, 164.25105657446957, 169.79355384678772, 172.778780365472, 176.23291900929115, 181.35865932804563, 187.53522518671448, 196.37442964745955, 179.0066941372731, 179.60205716852045, 195.6400265639635, 192.03821553083, 193.23911676056966, 198.9031111176009, 202.85577834726917, 204.98381675168594, 206.76472585589408, 214.9995340280503, 219.09853355026976, 215.59619633281426, 223.8232193232008, 224.6536199001455, 218.56731068722104, 233.9829091604184, 237.34233175922205, 234.66729787389204, 242.94317854895718, 237.40551483898483, 235.64708665829468, 235.35320248581712, 252.6470947800537, 259.0567810106333, 257.6243753920019, 259.8221236865972, 263.7725068931298, 257.8821641624608, 257.64136799531946, 255.07298871833572, 268.3133670766107, 286.21737050607237, 288.70614032547695, 278.90625062333277, 268.3108459449084]",0.7646120881907846,0.4937037774804195
3180.0,3480.0,84.18120377235248,82.52216748768473,59.50413223140497,122.03389830508476,0.0,78.92134937741358,69.09441700700904,27.076923076923077,51.38461538461539,9.314285714285715,326,560.8134111687538,3298.6401289607816,5584.316775664992,10553.483734587784,33.01059698957565,55.88412901581944,0.5906971723623206,0.15625,9.375,136.16097446021044,155.4447986525605,0.8759442299806252,0.7519585255346308,"[4, 5, 6, 7, 8, 9, 10, 11, 12, 13, 14, 15, 16, 17, 18, 19, 20, 21, 22, 23, 24, 25, 26, 27, 28, 29, 30, 31, 32, 33, 34, 35, 36, 37, 38, 39, 40, 41, 42, 43, 44, 45, 46, 47, 48, 49, 50, 51, 52, 53, 54, 55, 56, 57, 58, 59, 60, 61, 62, 63, 64]","[51.96264037946054, 62.033905877794474, 75.88086223882698, 86.26177146454401, 92.86381958501744, 103.79962077773145, 114.73606624166831, 122.09057466887064, 128.32421683148638, 129.71000929050695, 138.15476260760937, 140.35453322182488, 151.92855184287544, 155.6961773052786, 158.5077753196356, 162.1020424893286, 176.68592280426674, 181.30671832235785, 162.94683362854553, 178.88006284901314, 182.49231409412647, 180.2935758229409, 192.22640335924032, 199.60671744945253, 187.95186639116432, 207.44910350005966, 193.2668640419908, 207.2386678485467, 212.0522727029292, 208.216299082112, 216.44339747183184, 221.62163061497685, 215.8074721260706, 241.2755083980483, 236.65831108318272, 237.17923452803774, 233.22743162697938, 263.39882807238394, 260.4177669695068, 260.0278893629308, 254.84697169590123, 273.6494489422475, 291.37110533065373, 278.08580265891726, 278.9961133393311, 292.33033336980134, 295.0150414828098, 300.64452356839655, 319.7457737064109, 299.36233675276657, 307.1060018267447, 307.63829744218174, 307.89649839238734, 312.73178424702485, 337.2173183827919, 361.69356726056566, 364.6902744356595, 327.11148588422367, 337.6281282876484, 351.7196101441673, 366.5259783769145]",0.7585781585085702,0.6424982768391536
3240.0,3540.0,83.71163527921391,84.70588235294117,59.25925925925926,122.03389830508476,0.0,88.0956528811499,76.74045648641935,18.9873417721519,42.405063291139236,10.566666666666666,317,1081.6274678631314,4005.280356559875,5905.171677843227,12533.808812749794,34.97395156380588,51.563728341412045,0.6782665390725341,0.15625,9.375,141.6499612615574,162.1740547751524,0.8734440379994765,0.7004781806602045,"[4, 5, 6, 7, 8, 9, 10, 11, 12, 13, 14, 15, 16, 17, 18, 19, 20, 21, 22, 23, 24, 25, 26, 27, 28, 29, 30, 31, 32, 33, 34, 35, 36, 37, 38, 39, 40, 41, 42, 43, 44, 45, 46, 47, 48, 49, 50, 51, 52, 53, 54, 55, 56, 57, 58, 59, 60, 61, 62, 63, 64]","[52.80648869252257, 62.62691353518077, 78.13627876071652, 89.54347974556336, 100.22258107063328, 108.55849025270442, 117.39615671155978, 126.8961221523223, 127.13028480133386, 135.77834688802378, 143.03654000486551, 144.19395709549985, 152.6538865507148, 151.45162302294162, 158.70282210951555, 163.58027422410217, 171.5901769071692, 176.4169566076517, 173.9726109509637, 188.28275409638513, 198.28923435216333, 186.83445598234445, 202.20975648731127, 188.0378898931954, 200.6455856581188, 201.88098160862418, 212.85349797924147, 218.36215740411848, 222.3255237814466, 226.83520894267483, 219.27818549891785, 232.73134028840676, 238.74831903336133, 219.6054018614169, 226.19091756215533, 248.22556981046495, 274.59203758793603, 285.8577467654677, 279.01529085729885, 278.43720779773736, 284.55590623314663, 297.4424278559511, 310.3627679666319, 311.23031844058175, 292.0884565899511, 297.94449470710424, 313.4774665776446, 316.3759258522791, 325.5389767247556, 332.33365021458064, 333.5492662075131, 338.9002741297985, 343.79191681413147, 352.8020105186651, 346.3327844561626, 343.9927071967154, 360.5242016199027, 369.9040546922829, 366.6700957458722, 365.0408582673894, 375.669182992629]",0.757737271342226,0.6901198958415333
3300.0,3600.0,85.08745349766517,87.80487804878048,59.25925925925926,122.03389830508476,0.0,90.65207651403591,75.41787085205812,13.2013201320132,34.32343234323432,6.909090909090909,304,1307.4659783696834,3641.6895097055944,6541.690771358764,13039.788582944118,31.03980032296162,55.757849420268734,0.5566893387333234,0.15625,9.375,144.98111501521836,162.50659929240365,0.8921552456731244,0.6686698026883904,"[4, 5, 6, 7, 8, 9, 10, 11, 12, 13, 14, 15, 16, 17, 18, 19, 20, 21, 22, 23, 24, 25, 26, 27, 28, 29, 30, 31, 32, 33, 34, 35, 36, 37, 38, 39, 40, 41, 42, 43, 44, 45, 46, 47, 48, 49, 50, 51, 52, 53, 54, 55, 56, 57, 58, 59, 60, 61, 62, 63, 64]","[53.85083526694991, 67.35283713070183, 79.77736235754861, 91.66315239480612, 99.26010034098971, 109.40497983415206, 119.04932315505707, 122.77016171358572, 132.18268914463403, 143.60327410462256, 145.95365452872883, 154.3137455671778, 152.98741252762366, 150.97655905297697, 158.89337385684365, 160.38442345929656, 166.62661867075366, 171.28859821962206, 169.39682437218087, 175.83374715282514, 178.08582941030534, 200.19581898319854, 201.12495289227888, 191.98877614296026, 212.51333060754126, 225.2206512301502, 210.38092456231078, 218.9196080071714, 224.9005739834481, 235.30445579599146, 248.57136874687694, 253.61751575266138, 230.9001180677118, 235.68810527874962, 248.61998782501482, 273.9766089111763, 287.5530379372967, 292.0996951808251, 285.6893201050641, 283.0980662177314, 281.94556630732336, 290.771047239744, 310.4167273481629, 321.524497949483, 317.4253226958061, 312.0447507075613, 316.0332982506828, 330.241518043676, 344.1470276380815, 348.8569372967434, 348.313610397901, 341.2176874629291, 348.1851837747375, 354.33211419979136, 379.1066253528724, 372.22645662517976, 377.6065130014146, 388.4941182433922, 404.49253245657945, 400.4388630518811, 396.6299724752616]",0.7544023261842705,0.746854680615858
3360.0,3660.0,86.75164083867878,88.88888888888889,59.016393442622956,123.07692307692308,0.0,96.93484251412747,80.95095405993195,12.837837837837837,27.364864864864863,5.5,297,1551.495113837957,3852.363669639556,8062.528163011408,15054.838477365032,28.528961798045533,59.70764384758616,0.47781087913752757,0.203125,12.1875,142.37448453378025,169.66353438383558,0.8391578370145326,0.666935649213218,"[4, 5, 6, 7, 8, 9, 10, 11, 12, 13, 14, 15, 16, 17, 18, 19, 20, 21, 22, 23, 24, 25, 26, 27, 28, 29, 30, 31, 32, 33, 34, 35, 36, 37, 38, 39, 40, 41, 42, 43, 44, 45, 46, 47, 48, 49, 50, 51, 52, 53, 54, 55, 56, 57, 58, 59, 60, 61, 62, 63, 64]","[51.3218255481987, 66.77302444723256, 81.47375392585288, 93.73386816462764, 103.14116117031557, 114.39584691915495, 116.8979060689579, 127.54558246405405, 137.58589585629278, 136.88398614798345, 153.07256392508316, 147.05009862219518, 156.83632186130097, 159.2520073769545, 166.1103450801128, 169.2094618147651, 175.57591126198776, 184.7444796770145, 181.6860053959557, 184.89735662494613, 198.97706203800055, 194.27894708155503, 200.62784774725733, 193.38461746401862, 217.46939360772646, 228.50297230387866, 229.02157110604725, 231.54480207698873, 238.63113267019003, 233.329853742771, 227.20807994432988, 252.7005610621933, 281.00704740625895, 296.47522814178865, 281.69232310646396, 279.7897229635581, 295.39280458957455, 314.05067932855655, 313.73404168976504, 302.5574316793897, 301.77239486589053, 323.7152814503345, 324.08676482655835, 324.6360332021482, 331.137045440404, 340.6557846232232, 338.43329243668376, 350.28473973784475, 359.16511462066836, 373.8225461018168, 373.8176146164642, 377.12226550963453, 389.53799461065375, 402.5469090558458, 411.95161899082814, 421.1001694709803, 430.8119881677346, 440.817887997621, 444.4570030841717, 440.9430401557567, 441.8552265274214]",0.7688778696965848,0.7968466227957807
3420.0,3720.0,88.87673141056965,88.88888888888889,59.016393442622956,123.07692307692308,0.0,100.63551274852037,85.4968600873466,14.802631578947366,20.394736842105264,5.258620689655173,305,1545.1425171837036,4406.20210391865,7745.0050528172105,15092.051474401274,32.525516468988286,57.171750967520886,0.5689088740253196,0.203125,12.1875,136.39761833171409,172.3763934609564,0.7912778286697849,0.6597320244190749,"[4, 5, 6, 7, 8, 9, 10, 11, 12, 13, 14, 15, 16, 17, 18, 19, 20, 21, 22, 23, 24, 25, 26, 27, 28, 29, 30, 31, 32, 33, 34, 35, 36, 37, 38, 39, 40, 41, 42, 43, 44, 45, 46, 47, 48, 49, 50, 51, 52, 53, 54, 55, 56, 57, 58, 59, 60, 61, 62, 63, 64]","[54.67172041071153, 67.02813029918073, 80.51679814337706, 89.41437147010802, 101.7514433252147, 106.89206822149903, 118.15961296474953, 123.74568527233593, 133.428071337392, 138.85069813524905, 145.00255797443324, 151.947947687349, 156.5079068950981, 159.637222760786, 161.92131572744114, 170.53564309752372, 171.4275983877888, 179.05109121823224, 185.74036181416332, 201.8180348596326, 174.25479016101548, 191.64856962346622, 186.44165553517874, 204.1922616370155, 202.57340310481487, 219.995909168015, 219.66278140681914, 222.86580109081115, 229.0793906016272, 245.01977510093306, 256.68638284341137, 272.16544089259935, 248.3919269651492, 245.2558941976309, 267.93242726533856, 269.6853212490485, 269.9787336544812, 262.4221846689511, 287.8632601265534, 297.5007774230128, 302.93921755145504, 302.23349558090786, 296.26510739747175, 319.05458095761645, 346.199482534704, 342.98436049292513, 340.277474393102, 351.3629692000741, 365.013901744899, 368.61629270433957, 375.28184048387277, 382.5068887500148, 389.7780632023723, 375.25518542104186, 369.0744160277667, 379.4208854060368, 377.57035790985657, 379.66086657946266, 397.2119299311355, 430.2133101624576, 445.88695663697996]",0.7475289183210415,0.7597834652094472
3480.0,3780.0,90.54324945780019,88.88888888888889,59.016393442622956,123.07692307692308,0.0,80.08428488291533,80.17936401035752,16.98717948717949,20.51282051282051,4.408450704225352,313,978.7968999602856,4211.041213130464,7847.320571762945,14105.207365158567,32.08067601036163,59.78268463086955,0.5366215352897746,0.1875,11.25,133.55535520314845,166.88111265731814,0.8003024013711939,0.621802115290317,"[4, 5, 6, 7, 8, 9, 10, 11, 12, 13, 14, 15, 16, 17, 18, 19, 20, 21, 22, 23, 24, 25, 26, 27, 28, 29, 30, 31, 32, 33, 34, 35, 36, 37, 38, 39, 40, 41, 42, 43, 44, 45, 46, 47, 48, 49, 50, 51, 52, 53, 54, 55, 56, 57, 58, 59, 60, 61, 62, 63, 64]","[48.581578052543776, 64.29404188456263, 73.95709633003369, 86.4622848952006, 95.31743632472904, 104.49095118754707, 117.70598599407242, 117.85839162229894, 125.53233409265854, 135.49172384305285, 141.94194840696483, 145.32068094174684, 156.12427321988005, 154.600275840355, 159.0985502334893, 165.73182728376335, 161.6284018290001, 169.42289342196227, 185.00174843335944, 179.72408310876096, 190.51554340495377, 192.84738058267027, 204.26648940100296, 192.80985786976296, 213.46879751695354, 208.98530828113095, 216.46814750416567, 219.54535552818714, 235.86732485901996, 241.70934879096004, 228.68249425476384, 252.38348600631193, 251.01787508475275, 248.7399930517189, 245.9914911210457, 277.53373594915706, 256.05760147452617, 244.03106691813372, 247.97655043492585, 272.4727954335043, 286.8342552334543, 276.6631113233659, 282.3381623313055, 289.2392758811043, 292.2600105366133, 308.67649401889366, 318.39427952931146, 315.48476091743544, 304.68866669343106, 321.82880981249497, 311.3037401584514, 329.20253632615237, 345.3864750328567, 347.9430613938639, 346.66602816761275, 352.23755905857513, 346.9210095195103, 360.1923565214406, 367.6078796918016, 365.0654395382485, 367.8455273495324]",0.7974164210221306,0.6592330167294824
3540.0,3840.0,90.76932883260102,88.34355828220858,59.016393442622956,123.07692307692308,0.0,57.48403600505256,65.06138604772686,16.77018633540373,19.565217391304348,4.306666666666667,323,821.4480445612336,4412.620065844684,6945.448124001672,13208.336301226302,35.623313736364466,56.07096778534758,0.6353254659833698,0.1875,11.25,127.0916913467111,159.28220782186312,0.7979026225505801,0.5601873411149522,"[4, 5, 6, 7, 8, 9, 10, 11, 12, 13, 14, 15, 16, 17, 18, 19, 20, 21, 22, 23, 24, 25, 26, 27, 28, 29, 30, 31, 32, 33, 34, 35, 36, 37, 38, 39, 40, 41, 42, 43, 44, 45, 46, 47, 48, 49, 50, 51, 52, 53, 54, 55, 56, 57, 58, 59, 60, 61, 62, 63, 64]","[42.01379920188088, 59.054182998461734, 71.08593568358026, 85.66085523806662, 92.83462748608046, 101.79276050225613, 107.21641346043556, 112.79734307116583, 121.58190186622383, 129.1979590625322, 132.47666366166837, 139.38404289983757, 146.85658404490522, 152.96689025807154, 159.80185505006918, 166.8989266905345, 166.916045761464, 170.97796717770188, 179.68409024820872, 180.26357877328712, 189.1060242350693, 183.52054119981025, 195.48174103990914, 208.87960197013294, 200.740015984791, 204.06522942479023, 213.0874245922177, 222.80929788695178, 219.12946461747896, 215.9340023970589, 233.0952170580715, 232.03491867766556, 218.87539873708994, 240.66244922476514, 270.1993002181696, 304.25759201902343, 278.4789601295653, 259.9750361539384, 269.3417569175799, 279.23606942936146, 296.3301531401831, 293.546414759202, 288.8033168652462, 281.5873696324082, 290.53792676466855, 299.9976701720449, 322.8822924344946, 320.2248099357528, 316.82131391095163, 316.0867828139662, 334.6495890894984, 337.3458645208837, 328.85238543927414, 322.6572880827934, 343.542801596935, 341.63791745809704, 340.95607862487924, 349.11704501239444, 371.01621152559505, 362.16551683077563, 367.52248843974786]",0.8298743395190952,0.6734431155379693
3600.0,3900.0,89.61911239827248,87.80487804878048,56.03112840466927,123.07692307692308,0.0,74.88808922492602,75.4999938494018,20.364741641337385,23.404255319148938,4.852941176470588,330,931.2595626005922,3725.4165148827406,7129.999736473722,12890.309473224173,31.151442152384877,59.620118569284756,0.5224988292531434,0.1875,11.25,123.1784264455512,160.7547119114145,0.7662507990025818,0.547173395792876,"[4, 5, 6, 7, 8, 9, 10, 11, 12, 13, 14, 15, 16, 17, 18, 19, 20, 21, 22, 23, 24, 25, 26, 27, 28, 29, 30, 31, 32, 33, 34, 35, 36, 37, 38, 39, 40, 41, 42, 43, 44, 45, 46, 47, 48, 49, 50, 51, 52, 53, 54, 55, 56, 57, 58, 59, 60, 61, 62, 63, 64]","[41.14579198098477, 55.493936542568655, 69.58088708130494, 79.43457513453224, 91.03413073638089, 98.77832081346011, 111.84206338882446, 125.08353929344136, 120.23973964024704, 130.06921359292573, 134.52221238764608, 146.18321675600552, 148.85056369656775, 164.1598121209697, 166.21936417946904, 168.70278906968554, 172.60257867224098, 176.3334955865831, 187.98916182116508, 188.82540508983527, 183.1788457309201, 197.40718954389197, 214.27601216863246, 210.40244384340264, 230.81591050320438, 203.46012360533612, 235.7189125167426, 218.38372115131975, 244.28413284242436, 245.1301379639411, 240.38746016100137, 261.08729630634633, 235.33187119317128, 248.3127893295372, 275.0842922579341, 309.40499182381194, 288.08267321435403, 268.1571977479058, 295.4657245780285, 310.61554131505443, 299.4523416796449, 288.6476471713435, 296.53029627249816, 311.63872278409326, 299.87426367240084, 320.58293883327156, 321.33926297469276, 318.25161676830373, 325.02449492754886, 321.3262465842847, 322.60919917570146, 319.71663319038817, 323.2342467582208, 313.6696185032419, 340.10334260664075, 363.9743379395482, 374.4733325681046, 371.2521848779324, 361.59270292861567, 358.70780024768277, 363.43907369948573]",0.8939934664535367,0.6441483480844433
3660.0,3960.0,88.71616323736762,86.74698795180723,56.03112840466927,124.13793103448276,0.0,71.44747339202252,69.41432483499071,19.469026548672566,23.008849557522122,6.181818181818182,340,914.0201966332011,4087.5813650137507,5559.2444234960385,12111.841165174214,36.50336415001936,49.645769825344544,0.7352764249288388,0.1875,11.25,121.06704483355223,154.50897219206416,0.7835599649388544,0.5229515116865187,"[4, 5, 6, 7, 8, 9, 10, 11, 12, 13, 14, 15, 16, 17, 18, 19, 20, 21, 22, 23, 24, 25, 26, 27, 28, 29, 30, 31, 32, 33, 34, 35, 36, 37, 38, 39, 40, 41, 42, 43, 44, 45, 46, 47, 48, 49, 50, 51, 52, 53, 54, 55, 56, 57, 58, 59, 60, 61, 62, 63, 64]","[38.63346537722408, 54.46549913137568, 63.5542188577711, 72.62338376155706, 86.6997911888287, 95.02981760461958, 109.3823813361744, 105.95907689440101, 117.70658262392587, 126.69420404334643, 133.10289731903595, 145.89461633464649, 151.60990428128656, 156.07685622263367, 158.87296211771982, 167.2553011678187, 174.75427276299303, 178.0881230961125, 184.86809573566592, 189.61698648037014, 196.4624327555216, 210.0923594970712, 204.22303605923562, 202.7341386529567, 221.32638208288228, 215.26467313531455, 221.55256618637995, 231.56299851382752, 243.21747004129566, 221.61892909901593, 229.935958298546, 251.31246381286147, 266.8745227216586, 255.04022455081684, 268.80559382213187, 252.59627076662017, 272.632372774661, 266.35569549682845, 272.2364533435165, 276.78086016744476, 290.1390090640579, 286.39710040565654, 276.28774264628214, 278.98304513946437, 291.62730832741164, 288.2909556561377, 289.5385356266976, 286.7951502198421, 302.08713920452766, 327.7088411719918, 334.528262891066, 337.2163856693245, 338.82283902054587, 323.7764322660204, 314.7814890847456, 316.9107256826912, 323.2770947850807, 327.47210966445334, 342.6517071929748, 340.9496875068506, 332.11877410566575]",0.9352536184471744,0.5875057061452237
3720.0,4020.0,87.94661824038438,85.20710059171597,56.03112840466927,122.03389830508476,0.0,72.46951891379274,75.91109141359499,23.809523809523807,30.357142857142854,7.659090909090909,337,974.3213395006576,3540.771840854458,4827.070593039415,10828.251355078894,35.93258563087818,48.98624797830126,0.7335239401636706,0.1875,11.25,122.07655083428655,149.98465354154857,0.8139269448688565,0.5597984003271408,"[4, 5, 6, 7, 8, 9, 10, 11, 12, 13, 14, 15, 16, 17, 18, 19, 20, 21, 22, 23, 24, 25, 26, 27, 28, 29, 30, 31, 32, 33, 34, 35, 36, 37, 38, 39, 40, 41, 42, 43, 44, 45, 46, 47, 48, 49, 50, 51, 52, 53, 54, 55, 56, 57, 58, 59, 60, 61, 62, 63, 64]","[39.912751639493635, 55.75831394207474, 66.24104353327668, 74.54844397003045, 83.37944390865813, 92.81013290422192, 106.55370731223283, 106.01856463864242, 115.41536361195983, 127.42610558861074, 129.88703101293703, 137.023983573193, 139.68049800044247, 156.54852825850375, 156.14805108597932, 154.75052778156495, 167.79158092302075, 176.82455385099746, 181.2295969471491, 194.23733863149957, 197.84285962450224, 198.52664988681587, 201.13318611631854, 233.16454506858403, 211.33328458920198, 226.44931019456155, 221.35748669456441, 235.74362193954147, 231.6821048575926, 248.05470314332163, 248.46133651213188, 250.30237247194353, 256.8670735696208, 263.5451599134108, 259.95878169626576, 274.2847660456865, 273.17511082088276, 284.87168829264317, 274.76827262574506, 280.04638869514264, 289.5058014524553, 285.5018791877793, 287.3031797432202, 270.7697823387952, 262.52170195252023, 291.0717957643092, 318.71450628602906, 325.3031281114123, 311.2311989659571, 298.1715578212172, 297.3749716742851, 310.0305973235505, 314.0686110013483, 317.42003817164215, 330.41131698446543, 335.8606695861714, 346.1782493880915, 344.39691308769534, 348.10417569389864, 336.08574937142913, 325.75961747660676]",0.8691662789316602,0.6059368920818902
