window_s,t_s_center,RR_ms_mean,RR_ms_median,RR_ms_sd,RR_ms_mad
30,15.191666666666666,767.4145299145299,775.0,47.6692870061711,8.333333333333258
30,20.191666666666666,771.3675213675214,775.0,13.891137919571413,8.333333333333258
30,25.191666666666666,770.0854700854702,770.8333333333334,13.715460169214932,8.333333333333258
30,30.191666666666666,770.2991452991454,770.8333333333334,13.725705783319933,8.333333333333258
30,35.19166666666666,770.9401709401709,770.8333333333334,11.490174239913758,8.333333333333258
30,40.19166666666666,767.7350427350427,766.6666666666667,13.166373411608642,8.333333333333485
30,45.19166666666666,762.6068376068375,766.6666666666667,12.259647542435616,8.333333333333485
30,50.19166666666666,765.9188034188033,766.6666666666667,12.961925338160032,8.333333333333258
30,55.19166666666666,765.491452991453,766.6666666666667,12.85848234828259,8.333333333333258
30,60.19166666666666,765.0641025641025,766.6666666666667,13.50544699428789,8.333333333333485
30,65.19166666666666,743.9583333333333,762.5,64.25907709113157,12.5
30,70.19166666666666,746.6463414634146,766.6666666666667,110.41752952569745,12.499999999999886
30,75.19166666666666,748.2291666666667,766.6666666666667,117.77513515520248,12.500000000000114
30,80.19166666666666,754.0625,758.3333333333333,137.73286258255575,18.75
30,85.19166666666666,761.6452991452992,754.1666666666666,184.0848320981579,29.16666666666663
30,90.19166666666666,761.2373737373737,754.1666666666666,200.5295854380165,41.66666666666663
30,95.19166666666666,792.4999999999999,754.1666666666666,213.71520726147406,41.66666666666663
30,100.19166666666666,802.7777777777778,754.1666666666666,212.19460946871789,39.583333333333314
30,105.19166666666666,819.0972222222222,756.25,252.74664379805017,70.83333333333331
30,110.19166666666666,820.8333333333334,804.1666666666666,324.19772773211514,270.8333333333334
30,130.19166666666666,15156.944444444445,3566.666666666667,22614.24864765903,2879.166666666667
30,135.19166666666666,5015.833333333334,729.1666666666667,12752.65280439261,97.91666666666663
30,140.19166666666666,2904.1666666666674,616.6666666666667,9303.093476113665,91.66666666666674
30,145.19166666666666,2234.5679012345686,616.6666666666667,7812.1045895504585,99.99999999999989
30,150.19166666666666,1986.2373737373741,608.3333333333333,7068.957339039736,91.66666666666652
30,155.19166666666666,1753.8541666666667,612.5,6423.87536214381,99.99999999999994
30,160.19166666666666,667.1296296296296,600.0,309.9927477338574,91.66666666666663
30,165.19166666666666,663.8888888888889,600.0,307.4169942168671,83.33333333333326
30,170.19166666666666,683.9015151515151,631.25,309.2558884572039,106.25
30,175.19166666666666,682.2916666666669,660.4166666666666,305.5620337873278,87.50000000000006
30,180.19166666666666,653.1481481481482,666.6666666666666,136.75808667308343,79.16666666666674
30,185.19166666666666,654.6195652173915,666.6666666666666,127.20653791259313,72.91666666666663
30,190.19166666666666,648.5507246376811,666.6666666666666,123.82228338897956,75.00000000000006
30,195.19166666666666,645.7446808510638,666.6666666666666,125.88601858505916,75.00000000000011
30,200.19166666666666,662.5,666.6666666666666,140.5397468851622,75.0
30,205.19166666666666,683.2386363636365,666.6666666666666,158.20447795371936,75.00000000000011
30,210.19166666666666,686.8371212121212,681.25,155.24825700518429,79.16666666666669
30,215.19166666666666,696.4147286821706,675.0,169.65471615728447,104.16666666666674
30,220.19166666666666,716.0714285714284,695.8333333333333,162.09317280668589,81.25000000000006
30,225.19166666666666,724.6951219512196,700.0,157.8237145187587,70.83333333333337
30,230.19166666666666,706.298449612403,691.6666666666666,152.58837129919215,83.33333333333337
30,235.19166666666666,690.9883720930231,687.5,139.91957910952382,83.33333333333337
30,240.19166666666666,685.2272727272729,700.0,134.36631873722544,75.0
30,245.19166666666666,682.8598484848485,722.9166666666666,118.24860457836715,54.166666666666686
30,250.19166666666666,671.1174242424242,706.25,125.52987733114338,75.0
30,255.19166666666666,671.0227272727271,679.1666666666667,138.07857643352347,93.74999999999994
30,260.19166666666666,681.8181818181819,681.25,136.93680438648968,83.33333333333337
30,265.19166666666666,695.5426356589148,683.3333333333334,156.07568411083668,83.33333333333337
30,270.19166666666666,701.453488372093,700.0,154.04565102584166,75.0
30,275.19166666666666,702.9069767441862,679.1666666666667,157.75409629311073,54.16666666666674
30,280.19166666666666,723.8095238095239,687.5,154.79925619131018,39.583333333333314
30,285.19166666666666,728.7698412698412,700.0,138.40032148433056,33.33333333333337
30,290.19166666666666,720.6300813008131,691.6666666666666,144.47868216547033,37.5
30,295.19166666666666,699.5155038759691,691.6666666666666,125.21875469111446,25.0
30,300.19166666666666,709.1269841269842,687.5,126.02976274244004,27.083333333333314
30,305.19166666666666,714.0243902439024,700.0,123.61649679202526,33.33333333333337
30,310.19166666666666,701.2596899224808,700.0,109.53822810222273,33.33333333333337
30,315.19166666666666,714.0873015873016,704.1666666666667,122.20781335542952,41.666666666666686
30,320.19166666666666,725.297619047619,704.1666666666667,131.7724723367423,45.83333333333326
30,325.19166666666666,739.1260162601625,716.6666666666666,125.76805028662774,41.66666666666663
30,330.19166666666666,732.5203252032519,716.6666666666666,121.14979934821939,37.5
30,335.19166666666666,726.3888888888889,714.5833333333333,126.75818616448774,43.75
30,340.19166666666666,722.6626016260162,708.3333333333334,148.31533358863058,49.999999999999886
30,345.19166666666666,708.0357142857143,693.75,152.82289790562834,54.16666666666663
30,350.19166666666666,698.2558139534884,695.8333333333333,128.33910700698678,33.33333333333337
30,355.19166666666666,712.3015873015873,691.6666666666666,144.27580688633685,33.33333333333337
30,360.19166666666666,717.1747967479675,704.1666666666667,144.62053772631782,37.500000000000114
30,365.19166666666666,719.047619047619,704.1666666666667,149.92134019620192,39.58333333333343
30,370.19166666666666,718.3531746031746,704.1666666666667,135.41333493027543,35.416666666666686
30,375.19166666666666,720.734126984127,704.1666666666667,136.1506471730561,37.50000000000006
30,380.19166666666666,723.5772357723577,704.1666666666667,137.92425003099513,37.500000000000114
30,385.19166666666666,702.0833333333334,704.1666666666667,123.4121712976084,33.33333333333326
30,390.19166666666666,704.1666666666667,691.6666666666666,132.39688510378625,33.33333333333326
30,395.19166666666666,712.6984126984127,691.6666666666666,130.1739259611119,29.166666666666686
30,400.19166666666666,716.5674603174602,702.0833333333334,116.78089680437184,27.08333333333337
30,405.19166666666666,715.0793650793652,708.3333333333334,102.27738889540464,33.33333333333337
30,410.19166666666666,718.0555555555557,710.4166666666667,110.19225418178063,43.749999999999886
30,415.19166666666666,714.1472868217054,712.5,113.86277599960582,50.0
30,420.19166666666666,711.046511627907,733.3333333333333,107.60931642254667,41.66666666666674
30,425.19166666666666,698.2558139534884,737.5,92.76592226912183,33.33333333333337
30,430.19166666666666,701.2896825396825,741.6666666666667,93.31249810651192,25.0
30,435.19166666666666,712.0039682539683,739.5833333333334,107.48259762146131,37.49999999999994
30,440.19166666666666,715.4761904761905,727.0833333333333,115.0154848266233,47.91666666666663
30,445.19166666666666,743.4375,727.0833333333333,123.9625304539751,58.333333333333314
30,450.19166666666666,748.2291666666666,708.3333333333334,126.98175322348247,45.83333333333337
30,455.19166666666666,742.1875,679.1666666666667,124.81177958860323,25.000000000000114
30,460.19166666666666,746.0416666666667,670.8333333333333,137.43021409587757,16.66666666666663
30,465.19166666666666,728.5569105691058,662.5,132.41402142184828,16.666666666666742
30,470.19166666666666,720.2235772357724,662.5,127.49442041035505,20.833333333333258
30,475.19166666666666,717.4603174603175,662.5,131.48244707276956,29.166666666666742
30,480.19166666666666,728.3536585365854,654.1666666666666,144.37130079494654,20.83333333333337
30,485.19166666666666,751.4583333333333,654.1666666666666,157.13545407044816,22.916666666666686
30,490.19166666666666,741.0569105691056,650.0,153.96259290343917,16.666666666666742
30,495.19166666666666,774.4658119658119,658.3333333333334,163.09825626928287,25.000000000000114
30,500.19166666666666,789.5833333333334,668.75,165.74562509229992,33.33333333333337
30,505.19166666666666,791.4414414414415,679.1666666666667,162.01240338994268,33.33333333333337
30,510.19166666666666,769.9561403508773,668.75,157.00353702051663,22.91666666666663
30,515.1916666666667,750.1041666666667,660.4166666666667,164.02687087687224,18.75
30,520.1916666666667,755.982905982906,679.1666666666667,164.68058661098374,29.166666666666742
30,525.1916666666667,737.3983739837398,679.1666666666667,162.57874108519084,29.166666666666742
30,530.1916666666667,726.2896825396826,679.1666666666667,163.76148901346616,29.166666666666742
30,535.1916666666667,717.4603174603175,670.8333333333333,159.588621766048,31.25
30,540.1916666666667,727.6785714285714,683.3333333333334,176.38299204265766,37.5
30,545.1916666666667,738.4146341463415,687.5,174.75556389946823,33.33333333333337
30,550.1916666666667,727.7777777777778,679.1666666666667,174.4344973257065,54.166666666666686
30,555.1916666666667,747.6041666666667,677.0833333333334,186.0063668284294,64.58333333333337
30,560.1916666666667,749.4791666666667,675.0,183.2001932542773,79.16666666666669
30,565.1916666666667,751.9791666666666,689.5833333333333,181.3583095681866,93.74999999999994
30,570.1916666666667,755.7291666666666,691.6666666666666,179.0130217274869,85.41666666666669
30,575.1916666666667,769.0170940170941,700.0,178.68098919284998,91.66666666666674
30,580.1916666666667,797.3684210526316,727.0833333333333,185.09955181178327,110.41666666666669
30,585.1916666666667,786.1842105263158,718.75,176.3065375401318,50.00000000000006
30,590.1916666666667,788.1578947368421,718.75,180.0705940454813,50.00000000000006
30,595.1916666666667,776.8162393162391,716.6666666666666,180.4518240728424,74.99999999999989
30,600.1916666666667,799.2117117117118,720.8333333333334,174.4337118453927,87.50000000000011
30,605.1916666666667,773.1359649122808,693.75,170.69373929799028,60.41666666666674
30,610.1916666666667,735.2564102564103,662.5,173.1598273228249,45.83333333333337
30,615.1916666666667,722.0959595959596,654.1666666666666,171.50049112287465,54.16666666666674
30,620.1916666666667,721.3141025641027,654.1666666666666,169.53910939775702,20.83333333333337
30,625.1916666666667,730.9210526315788,654.1666666666666,186.02462640986323,150.0
30,630.1916666666667,651.7857142857141,641.6666666666666,149.2387582356104,20.833333333333314
30,635.1916666666667,608.9285714285714,591.6666666666666,172.76061518393064,87.5
30,680.1916666666667,70745.83333333334,70745.83333333334,0.0,0.0
30,685.1916666666667,25159.72222222223,3654.166666666667,39499.71899806283,2575.0000000000005
30,690.1916666666667,19207.29166666667,2502.0833333333335,34378.446523349434,1287.5000000000002
30,695.1916666666667,19207.29166666667,2502.0833333333335,34378.446523349434,1287.5000000000002
30,700.1916666666667,19207.29166666667,2502.0833333333335,34378.446523349434,1287.5000000000002
30,705.1916666666667,19207.29166666667,2502.0833333333335,34378.446523349434,1287.5000000000002
30,710.1916666666667,4352.976190476192,1079.1666666666665,8237.902786998784,562.4999999999998
30,715.1916666666667,2542.7083333333335,622.9166666666667,6404.206005527725,164.5833333333333
30,720.1916666666667,1917.5925925925922,743.75,5229.097541835819,104.16666666666669
30,725.1916666666667,1575.3333333333335,741.6666666666667,4436.797662207549,75.00000000000011
30,730.1916666666667,1374.7395833333335,710.4166666666667,3923.191050840294,99.99999999999994
30,735.1916666666667,1231.7708333333335,710.4166666666667,3510.059907624142,99.99999999999994
30,740.1916666666667,680.8712121212121,675.0,120.77925207085995,116.66666666666663
30,745.1916666666667,676.6098484848485,668.75,109.23231615689453,110.41666666666663
30,750.1916666666667,656.7592592592592,645.8333333333334,105.9554327619026,100.0
30,755.1916666666667,670.3703703703704,650.0,110.16166316566468,112.5
30,760.1916666666667,681.2962962962963,670.8333333333333,111.34586942265064,116.66666666666674
30,765.1916666666667,688.4469696969697,693.75,108.94232391005859,102.08333333333326
30,770.1916666666667,698.9341085271317,745.8333333333334,106.16376450354734,70.83333333333326
30,775.1916666666667,701.2596899224807,754.1666666666666,106.15769754995588,62.5
30,780.1916666666667,716.2698412698412,766.6666666666667,103.29025428007466,41.66666666666663
30,785.1916666666667,709.8214285714286,762.5,104.88500860929429,45.83333333333337
30,790.1916666666667,704.7619047619047,760.4166666666666,104.19540834606212,47.91666666666674
30,795.1916666666667,713.7896825396825,770.8333333333334,100.54681162159264,31.25
30,800.1916666666667,697.8682170542636,762.5,106.96778280578518,37.5
30,805.1916666666667,701.937984496124,762.5,106.15307918867852,33.33333333333326
30,810.1916666666667,698.9341085271317,762.5,105.53503229597655,33.33333333333326
30,815.1916666666667,692.9263565891472,750.0,103.79511068964746,33.33333333333337
30,820.1916666666667,696.8992248062016,758.3333333333333,101.65663585394404,25.000000000000114
30,825.1916666666667,691.7635658914729,750.0,103.6634207663006,29.16666666666663
30,830.1916666666667,713.7896825396825,762.5,94.4670549498579,16.66666666666663
30,835.1916666666667,710.4166666666666,764.5833333333334,95.79687358760668,18.75
30,840.1916666666667,700.8720930232558,766.6666666666667,101.30007310522247,20.83333333333337
30,845.1916666666667,709.3023255813953,775.0,100.58047960743072,16.66666666666663
30,850.1916666666667,711.4087301587302,768.75,111.72406122624058,27.083333333333258
30,855.1916666666667,707.1428571428571,762.5,113.7754621517469,45.83333333333337
30,860.1916666666667,684.6590909090909,656.25,113.14512390165218,108.33333333333337
30,865.1916666666667,687.8787878787879,666.6666666666667,114.52497873412659,110.41666666666663
30,870.1916666666667,699.9999999999999,712.5,117.19692422422631,87.5
30,875.1916666666667,690.1515151515151,668.75,119.45414080205369,110.41666666666663
30,880.1916666666667,685.3219696969697,668.75,109.18896096231555,110.41666666666663
30,885.1916666666667,696.0227272727273,679.1666666666667,113.45935532714812,120.83333333333331
30,890.1916666666667,731.6056910569106,800.0,112.37638119344963,41.66666666666663
30,895.1916666666667,742.7083333333334,808.3333333333334,110.36373912898165,31.249999999999943
30,900.1916666666667,735.1626016260163,808.3333333333334,111.29387703910608,29.16666666666663
30,905.1916666666667,732.3170731707318,800.0,109.29771272435241,41.66666666666663
30,910.1916666666667,735.1626016260162,800.0,109.2749494001057,29.166666666666742
30,915.1916666666667,726.3211382113822,795.8333333333333,110.13895510170008,29.166666666666742
30,920.1916666666667,711.8055555555555,764.5833333333333,110.26236214125099,66.66666666666669
30,925.1916666666667,718.3531746031747,764.5833333333333,135.335136569252,81.24999999999989
30,930.1916666666667,723.9837398373984,770.8333333333334,132.72576575655518,49.999999999999886
30,935.1916666666667,731.30081300813,779.1666666666666,132.41258237624066,33.33333333333337
30,940.1916666666667,730.8943089430894,779.1666666666666,133.54792500206705,45.83333333333337
30,945.1916666666667,725.5081300813008,770.8333333333334,134.87132216805927,58.33333333333337
30,950.1916666666667,722.0528455284552,750.0,134.83929446559085,75.0
30,955.1916666666667,699.9999999999999,729.1666666666666,103.18185261466625,79.16666666666674
30,960.1916666666667,698.4496124031008,695.8333333333333,119.5367742163801,87.5
30,965.1916666666667,691.0852713178294,695.8333333333333,126.02942973311117,95.83333333333337
30,970.1916666666667,685.0378787878789,697.9166666666666,126.00153737442577,87.5
30,975.1916666666667,688.8257575757575,722.9166666666666,123.08865817259753,64.58333333333337
30,980.1916666666667,687.8787878787879,708.3333333333333,124.62093098194488,79.16666666666674
30,985.1916666666667,684.9431818181818,722.9166666666666,129.68673716842648,85.41666666666674
30,990.1916666666667,690.6007751937984,741.6666666666667,111.27007362763382,58.33333333333326
30,995.1916666666667,685.7007575757575,729.1666666666666,105.95327439962333,64.58333333333331
30,1000.1916666666667,699.6031746031747,747.9166666666667,103.42954445990208,45.8333333333332
30,1005.1916666666667,695.5426356589147,750.0,107.39595736077857,50.0
30,1010.1916666666667,694.7674418604652,729.1666666666666,107.04396404038859,62.5
30,1015.1916666666667,700.0968992248062,729.1666666666666,117.0433557832883,62.5
30,1020.1916666666667,692.8977272727273,702.0833333333333,129.58197656713426,81.25000000000011
30,1025.1916666666666,714.9801587301588,764.5833333333333,134.9967991308829,93.74999999999994
30,1030.1916666666666,698.3901515151515,687.5,131.00318527392565,87.5
30,1035.1916666666666,704.6511627906976,687.5,131.33173098467307,66.66666666666663
30,1040.1916666666666,708.8178294573643,704.1666666666667,128.20046107372312,70.83333333333326
30,1045.1916666666666,705.1587301587301,700.0,133.3740077816353,66.66666666666674
30,1050.1916666666666,713.0952380952381,710.4166666666667,117.92142980903647,45.833333333333314
30,1055.1916666666666,700.484496124031,733.3333333333333,106.15253583884768,33.33333333333326
30,1060.1916666666666,697.7713178294574,737.5,112.90106653354721,29.166666666666742
30,1065.1916666666666,675.8522727272726,735.4166666666666,114.76713428065398,31.250000000000114
30,1070.1916666666666,667.5189393939394,733.3333333333333,115.11839325233316,25.0
30,1075.1916666666666,681.8181818181819,737.5,93.95956727171881,10.416666666666686
30,1080.1916666666666,664.9074074074074,733.3333333333333,98.71926420765837,12.500000000000114
30,1085.1916666666666,652.264492753623,733.3333333333333,101.57595574392859,20.83333333333337
30,1090.1916666666666,649.0942028985507,725.0,100.21548174040586,31.249999999999943
30,1095.1916666666666,658.7037037037037,725.0,95.09275036951821,29.16666666666663
30,1100.1916666666666,651.7730496453901,700.0,97.00662003364798,54.16666666666663
30,1105.1916666666666,643.3510638297872,612.5,96.55001228395606,104.16666666666669
30,1110.1916666666666,652.536231884058,683.3333333333333,109.0838612331593,70.83333333333337
30,1115.1916666666666,675.8522727272727,700.0,117.534080031601,54.16666666666663
30,1120.1916666666666,681.7234848484849,710.4166666666667,117.76619164931734,43.749999999999886
30,1125.1916666666666,695.2651515151515,731.25,114.93942522267606,29.16666666666663
30,1130.1916666666666,693.4108527131783,729.1666666666666,115.7247712620211,29.16666666666663
30,1135.1916666666666,690.0193798449611,720.8333333333334,116.3727147679532,29.166666666666742
30,1140.1916666666666,680.1136363636363,720.8333333333334,106.54025802367384,25.000000000000057
30,1145.1916666666666,675.5555555555554,720.8333333333334,105.60970168932914,25.000000000000114
30,1150.1916666666666,666.2037037037037,712.5,106.26382197017098,33.33333333333337
30,1155.1916666666666,661.9444444444445,695.8333333333333,120.21655544067218,50.000000000000114
30,1160.1916666666666,666.1111111111111,700.0,119.25100321455066,33.33333333333326
30,1165.1916666666666,668.4259259259259,700.0,117.89293612565483,33.33333333333326
30,1170.1916666666666,668.6111111111111,700.0,116.44188301986586,33.33333333333326
30,1175.1916666666666,687.6937984496125,704.1666666666667,142.98220155188926,29.166666666666515
30,1180.1916666666666,713.0952380952381,710.4166666666667,167.30206985688258,41.66666666666663
30,1185.1916666666666,709.2261904761905,708.3333333333334,170.19023240241424,91.66666666666674
30,1190.1916666666666,717.6587301587301,714.5833333333333,168.32460313987502,85.41666666666663
30,1195.1916666666666,716.3690476190477,716.6666666666666,169.66907666645866,100.0
30,1200.1916666666666,715.2777777777777,731.25,171.704024140532,122.91666666666674
30,1205.1916666666666,679.3518518518518,691.6666666666666,145.5922128834533,83.33333333333337
30,1210.1916666666666,658.9814814814815,633.3333333333333,112.57697827779609,108.33333333333326
30,1215.1916666666666,646.9202898550724,631.25,99.588020122969,106.25
30,1220.1916666666666,641.6666666666667,629.1666666666666,100.49645285798418,104.16666666666663
30,1225.1916666666666,647.373188405797,631.25,104.22168434345099,106.25
30,1230.1916666666666,661.2037037037037,633.3333333333333,107.85815887296505,112.49999999999989
30,1235.1916666666666,681.7829457364342,750.0,111.74061478814423,54.16666666666674
30,1240.1916666666666,689.2992424242425,762.5,112.12216816369535,41.66666666666674
30,1245.1916666666666,702.5193798449613,770.8333333333334,108.45589653765326,24.999999999999886
30,1250.1916666666666,718.8492063492063,779.1666666666666,101.05824750904134,14.583333333333314
30,1255.1916666666666,726.3888888888889,779.1666666666666,96.18689932901133,12.5
30,1260.1916666666666,724.1071428571429,775.0,95.691994192896,12.5
30,1265.1916666666666,719.7420634920635,775.0,93.6774087696459,14.583333333333314
30,1270.1916666666666,723.4756097560976,775.0,92.11422981650743,8.333333333333371
30,1275.1916666666666,739.4308943089432,775.0,80.22374073325037,16.66666666666663
30,1280.1916666666666,748.5416666666666,775.0,72.59038721648561,16.66666666666663
30,1285.1916666666666,750.8333333333333,775.0,72.60050504874835,20.833333333333314
30,1290.1916666666666,759.8290598290598,775.0,59.75314089446375,20.833333333333258
30,1295.1916666666666,731.3008130081301,770.8333333333334,92.64685204456187,25.0
30,1300.1916666666666,737.1951219512196,779.1666666666666,89.38150832899001,20.83333333333337
30,1305.1916666666666,737.1875,779.1666666666666,89.60078591672388,16.66666666666663
30,1310.1916666666666,719.5436507936507,764.5833333333334,97.47180163091217,24.999999999999943
30,1315.1916666666666,709.0277777777777,764.5833333333334,100.99402915530493,24.999999999999943
30,1320.1916666666666,701.1627906976744,762.5,103.6667590999696,29.16666666666663
30,1325.1916666666666,712.8968253968254,764.5833333333334,99.34494770577182,27.083333333333258
30,1330.1916666666666,712.3015873015873,764.5833333333334,99.53292164225842,27.083333333333258
30,1335.1916666666666,705.2325581395348,762.5,99.85974383373015,29.16666666666663
30,1340.1916666666666,709.9206349206348,762.5,97.40863440701557,29.16666666666663
30,1345.1916666666666,702.2286821705425,754.1666666666666,99.74897742017271,33.33333333333337
30,1350.1916666666666,693.5077519379845,750.0,102.69718388879183,41.66666666666663
30,1355.1916666666666,697.3837209302325,750.0,98.53852370828425,41.66666666666663
30,1360.1916666666666,687.9734848484849,747.9166666666667,98.37264319502387,31.25
30,1365.1916666666666,670.7407407407409,720.8333333333334,99.36068082183327,70.83333333333326
30,1370.1916666666666,657.8804347826087,679.1666666666667,100.42820458099567,83.33333333333326
30,1375.1916666666666,658.9814814814813,641.6666666666667,100.12600787158543,104.16666666666663
30,1380.1916666666666,661.6666666666667,716.6666666666666,97.83241055782872,58.33333333333337
30,1385.1916666666666,658.5144927536232,704.1666666666666,98.46803596233752,68.75000000000006
30,1390.1916666666666,650.2717391304349,633.3333333333333,97.38241633239224,106.24999999999994
30,1395.1916666666666,663.4259259259259,720.8333333333334,95.88638554968203,45.83333333333337
30,1400.1916666666666,663.8888888888889,716.6666666666666,94.57757624983277,50.000000000000114
30,1405.1916666666666,667.037037037037,716.6666666666666,95.38276087338534,54.16666666666674
30,1410.1916666666666,669.2592592592592,720.8333333333334,96.87464926984772,50.0
30,1415.1916666666666,668.1481481481483,720.8333333333334,97.30894400626244,50.0
30,1420.1916666666666,681.7234848484849,727.0833333333333,93.98158695341029,39.583333333333485
30,1425.1916666666666,675.2840909090909,729.1666666666666,98.25429473321387,41.66666666666674
30,1430.1916666666666,683.5227272727273,741.6666666666667,98.54789750141668,35.41666666666657
30,1435.1916666666666,682.7651515151516,741.6666666666667,98.40701035786732,27.083333333333314
30,1440.1916666666666,665.5555555555554,725.0,102.60342158628103,50.0
30,1445.1916666666666,676.3257575757576,729.1666666666666,97.97601585528604,35.41666666666674
30,1450.1916666666666,680.5871212121211,727.0833333333333,115.2178281262706,39.583333333333485
30,1455.1916666666666,681.439393939394,722.9166666666667,113.59272124130132,37.49999999999994
30,1460.1916666666666,685.1325757575759,725.0,109.79337287876211,29.16666666666663
30,1465.1916666666666,688.2575757575756,725.0,108.30080283525864,27.083333333333314
30,1470.1916666666666,701.6472868217055,729.1666666666666,102.59182368706064,25.0
30,1475.1916666666666,688.5416666666667,729.1666666666666,109.1173367744765,39.58333333333343
30,1480.1916666666666,679.7348484848485,729.1666666666666,94.5485623563138,43.75000000000006
30,1485.1916666666666,682.8598484848485,731.25,96.63348095951926,45.833333333333314
30,1490.1916666666666,673.3901515151515,729.1666666666666,102.30000305115301,54.16666666666674
30,1495.1916666666666,667.0370370370371,725.0,103.28728133691398,66.66666666666663
30,1500.1916666666666,660.5978260869565,635.4166666666666,103.21119768950662,108.33333333333331
30,1505.1916666666666,661.6666666666666,637.5,105.64332143413688,112.5
30,1510.1916666666666,661.0185185185185,637.5,103.05909493227846,108.33333333333337
30,1515.1916666666666,655.072463768116,635.4166666666666,100.94045826027813,110.41666666666663
30,1520.1916666666666,662.4074074074075,716.6666666666666,97.63413820935418,75.0
30,1525.1916666666666,672.9166666666665,733.3333333333333,99.1871843799371,37.500000000000114
30,1530.1916666666666,683.0492424242425,739.5833333333334,96.58409049569411,29.166666666666686
30,1535.1916666666666,677.8409090909091,733.3333333333333,95.74175236231872,37.500000000000114
30,1540.1916666666666,679.8148148148147,733.3333333333333,95.36676425793242,37.500000000000114
30,1545.1916666666666,682.2916666666667,737.5,97.87439298573238,33.33333333333337
30,1550.1916666666666,680.3030303030303,741.6666666666667,98.9828912260174,31.249999999999943
30,1555.1916666666666,659.4202898550726,683.3333333333333,99.97080894392006,79.16666666666674
30,1560.1916666666666,664.7222222222222,733.3333333333333,99.92737261621461,41.66666666666674
30,1565.1916666666666,669.9999999999999,737.5,100.12066583514476,37.5
30,1570.1916666666666,659.8148148148149,729.1666666666666,101.67922315791832,45.83333333333337
30,1575.1916666666666,658.7862318840581,683.3333333333333,101.1669117273466,83.33333333333348
30,1580.1916666666666,658.1521739130436,683.3333333333333,102.60855634241841,83.33333333333348
30,1585.1916666666666,668.8888888888889,725.0,98.57571565640148,45.83333333333337
30,1590.1916666666666,675.8522727272727,731.25,101.06258592468508,45.833333333333314
30,1595.1916666666666,674.537037037037,733.3333333333333,101.19715162034863,41.66666666666674
30,1600.1916666666666,683.5227272727274,727.0833333333333,96.6198536134559,43.750000000000114
30,1605.1916666666666,700.4960317460317,741.6666666666666,91.5751685856164,31.250000000000057
30,1610.1916666666666,712.9960317460317,745.8333333333334,81.88891682832323,25.0
30,1615.1916666666666,724.7967479674796,758.3333333333333,79.59833638856128,20.83333333333337
30,1620.1916666666666,721.8253968253968,758.3333333333333,79.49391884482438,18.75
30,1625.1916666666666,726.6260162601626,758.3333333333333,71.67925064410012,20.833333333333258
30,1630.1916666666666,731.808943089431,762.5,72.46740225952564,12.5
30,1635.1916666666666,713.8565891472869,758.3333333333333,86.3957194874899,16.666666666666742
30,1640.1916666666666,704.6511627906976,758.3333333333333,92.45784692285687,16.666666666666742
30,1645.1916666666666,703.5852713178294,758.3333333333333,92.8877072252416,20.83333333333337
30,1650.1916666666666,687.8875968992247,750.0,98.47889898960086,33.33333333333337
30,1655.1916666666666,701.7441860465116,758.3333333333333,97.40444611413045,20.83333333333337
30,1660.1916666666666,687.5,737.5,104.04450200723159,62.5
30,1665.1916666666666,694.3798449612403,737.5,100.49021593889769,54.16666666666663
30,1670.1916666666666,685.2713178294574,737.5,104.24341948992337,66.66666666666674
30,1675.1916666666666,676.6098484848485,727.0833333333333,105.27593828793668,85.41666666666674
30,1680.1916666666666,669.3518518518517,712.5,106.27471324131159,91.66666666666674
30,1685.1916666666666,656.2037037037037,629.1666666666666,102.6196572379161,100.0
30,1690.1916666666666,665.8333333333334,683.3333333333334,101.17132808391234,91.66666666666663
30,1695.1916666666666,655.2536231884059,629.1666666666666,102.84320283468828,100.0
30,1700.1916666666666,658.3333333333334,639.5833333333333,101.61124779773324,102.08333333333337
30,1705.1916666666666,654.3478260869565,639.5833333333333,100.42716066934959,102.08333333333326
30,1710.1916666666666,659.351851851852,683.3333333333334,98.82579064568738,87.5
30,1715.1916666666666,667.2222222222222,725.0,103.68677335946457,66.66666666666663
30,1720.1916666666666,657.5925925925926,629.1666666666666,102.43364787319912,104.16666666666663
30,1725.1916666666666,655.8333333333334,629.1666666666666,100.88153118055523,100.0
30,1730.1916666666666,664.4444444444446,629.1666666666666,101.97156837852285,104.16666666666663
30,1735.1916666666666,665.1851851851852,633.3333333333333,102.4408379533456,95.83333333333326
30,1740.1916666666666,672.8703703703704,637.5,103.11064034636526,104.16666666666663
30,1745.1916666666666,661.3224637681159,631.25,102.85156151652511,93.75
30,1750.1916666666666,673.5185185185186,641.6666666666667,103.59751921573374,108.33333333333337
30,1755.1916666666666,686.7424242424242,758.3333333333333,102.08292883669556,31.250000000000057
30,1760.1916666666666,672.5,641.6666666666667,104.96061069744115,112.50000000000011
30,1765.1916666666666,677.3674242424241,747.9166666666667,103.2396648451822,45.83333333333326
30,1770.1916666666666,677.7462121212121,743.75,101.91933584413721,41.666666666666686
30,1775.1916666666666,699.2248062015503,754.1666666666666,98.67364360065864,29.166666666666742
30,1780.1916666666666,689.8255813953489,750.0,102.9143062738664,33.33333333333337
30,1785.1916666666666,683.8068181818181,747.9166666666667,104.64894521865486,33.33333333333326
30,1790.1916666666666,704.4642857142857,756.25,99.52628675737087,27.08333333333337
30,1795.1916666666666,700.968992248062,754.1666666666666,103.26129244916716,29.166666666666742
30,1800.1916666666666,684.2803030303031,752.0833333333333,108.13511844323708,37.50000000000006
30,1805.1916666666666,659.4444444444445,637.5,104.34605765180947,95.83333333333337
30,1810.1916666666666,665.5555555555557,650.0,101.79264425410328,108.33333333333337
30,1815.1916666666666,665.648148148148,645.8333333333334,101.29821599323404,108.33333333333326
30,1820.1916666666666,659.6014492753624,641.6666666666667,98.18518958907727,100.00000000000011
30,1825.1916666666666,652.3550724637681,637.5,95.3900867633041,95.83333333333337
30,1830.1916666666666,664.9074074074075,645.8333333333334,97.65434271425917,104.16666666666674
30,1835.1916666666666,684.564393939394,735.4166666666667,103.61512724596632,66.66666666666663
30,1840.1916666666666,686.4583333333334,747.9166666666667,104.26981327281794,56.25
30,1845.1916666666666,696.2209302325581,758.3333333333333,103.36922521140994,41.66666666666674
30,1850.1916666666666,681.155303030303,697.9166666666667,108.79629994069005,89.58333333333326
30,1855.1916666666666,690.8914728682171,750.0,105.89149685149876,54.16666666666674
30,1860.1916666666666,688.6363636363636,745.8333333333334,105.21128780241685,56.25
30,1865.1916666666666,682.9545454545455,739.5833333333334,101.1753368673802,49.99999999999994
30,1870.1916666666666,687.9734848484849,745.8333333333334,101.90060734225631,45.83333333333326
30,1875.1916666666666,686.7248062015505,741.6666666666667,102.58826296435454,54.166666666666515
30,1880.1916666666666,705.8531746031747,760.4166666666667,98.03307612263491,33.3333333333332
30,1885.1916666666666,705.717054263566,770.8333333333334,99.6024806250908,24.999999999999886
30,1890.1916666666666,711.6071428571429,772.9166666666667,100.79517736337147,25.0
30,1895.1916666666666,719.410569105691,775.0,109.09829982355473,25.0
30,1900.1916666666666,710.1190476190476,722.9166666666666,118.83561261747724,74.99999999999994
30,1905.1916666666666,703.7790697674419,700.0,117.86099965351431,83.33333333333337
30,1910.1916666666666,702.6162790697674,700.0,116.93924809299565,87.5
30,1915.1916666666666,715.9722222222223,718.75,121.75641481387672,62.5
30,1920.1916666666666,720.2380952380952,739.5833333333334,120.2680618353784,56.249999999999886
30,1925.1916666666666,731.6468253968254,741.6666666666667,128.91583146434039,54.166666666666515
30,1930.1916666666666,750.0,758.3333333333334,115.38135085600327,41.666666666666686
30,1935.1916666666666,754.6875,768.75,112.52250289345419,29.16666666666663
30,1940.1916666666666,758.5416666666667,768.75,115.39658947840643,37.50000000000006
30,1945.1916666666666,752.5,775.0,111.92994222196293,31.25
30,1950.1916666666666,755.1282051282052,770.8333333333334,114.03061083291439,37.5
30,1955.1916666666666,738.2291666666667,762.5,93.03029779045134,43.75000000000006
30,1960.1916666666666,725.0,754.1666666666666,96.18143300843232,49.999999999999886
30,1965.1916666666666,726.2195121951219,754.1666666666666,95.0842275668174,50.000000000000114
30,1970.1916666666666,723.6788617886178,758.3333333333333,90.34289917251,41.66666666666674
30,1975.1916666666666,713.9880952380952,745.8333333333334,92.97305167200226,52.08333333333326
30,1980.1916666666666,703.2945736434109,729.1666666666666,86.4188599866254,33.33333333333337
30,1985.1916666666666,708.3333333333333,725.0,106.67224687784662,58.33333333333337
30,1990.1916666666666,710.3174603174604,727.0833333333333,107.16315353851587,62.5
30,1995.1916666666666,705.3294573643411,745.8333333333334,109.42416914988654,37.5
30,2000.1916666666666,692.4242424242424,725.0,111.67792060926419,56.25
30,2005.1916666666666,704.265873015873,743.75,107.29445629508675,35.41666666666663
30,2010.1916666666666,706.2984496124031,745.8333333333334,108.36145885292812,33.33333333333326
30,2015.1916666666666,698.1589147286821,745.8333333333334,93.48530678122273,33.33333333333326
30,2020.1916666666666,694.4128787878789,745.8333333333334,95.0101279018345,31.249999999999943
30,2025.1916666666666,696.5116279069767,745.8333333333334,97.73361914565523,33.33333333333326
30,2030.1916666666666,707.5396825396825,745.8333333333334,96.1982188134364,35.41666666666663
30,2035.1916666666666,701.6472868217055,745.8333333333334,101.50626306231597,41.66666666666663
30,2040.1916666666666,707.8373015873016,760.4166666666666,101.64718251317237,29.166666666666686
30,2045.1916666666666,701.2896825396826,747.9166666666667,102.05579973483798,35.416666666666686
30,2050.1916666666666,704.6626984126984,750.0,100.9826482189958,37.5
30,2055.1916666666666,716.2698412698413,758.3333333333333,99.78724625632948,33.33333333333337
30,2060.1916666666666,711.6071428571429,747.9166666666667,98.70664168660001,43.74999999999994
30,2065.1916666666666,708.234126984127,737.5,97.14107766307957,43.75
30,2070.1916666666666,704.7480620155039,733.3333333333333,112.84698618540212,58.33333333333337
30,2075.1916666666666,705.4263565891473,733.3333333333333,126.12108013701763,66.66666666666674
30,2080.1916666666666,707.3643410852713,729.1666666666666,133.7383395293637,70.83333333333337
30,2085.1916666666666,701.8410852713179,720.8333333333334,126.92076619236757,33.33333333333326
30,2090.1916666666666,693.8953488372093,712.5,130.59992334550435,41.66666666666663
30,2095.1916666666666,710.9496124031008,712.5,147.8153947299075,66.66666666666663
30,2100.1916666666666,699.3055555555555,708.3333333333334,140.55312199977763,72.91666666666663
30,2105.1916666666666,706.1507936507936,725.0,123.15796590456672,39.58333333333337
30,2110.1916666666666,713.2113821138212,712.5,125.45369898664168,29.166666666666742
30,2115.1916666666666,710.0198412698412,710.4166666666667,140.95967634586052,70.83333333333326
30,2120.1916666666666,713.2936507936507,712.5,140.18606397652405,70.83333333333331
30,2125.1916666666666,697.1230158730158,712.5,121.89048385151034,64.58333333333331
30,2130.1916666666666,702.422480620155,720.8333333333334,119.52020677067225,45.83333333333337
30,2135.1916666666666,692.6136363636365,725.0,125.57639599428624,62.5
30,2140.1916666666666,679.8148148148148,737.5,113.52283189469725,54.16666666666663
30,2145.1916666666666,667.9629629629629,737.5,98.91225890008928,29.166666666666742
30,2150.1916666666666,666.0185185185185,737.5,97.8620719639047,20.833333333333258
30,2155.1916666666666,676.2962962962963,737.5,98.1353225213779,29.166666666666742
30,2160.1916666666666,674.537037037037,737.5,99.99298516361243,41.66666666666663
30,2165.1916666666666,677.8409090909091,739.5833333333334,99.02534033836235,39.58333333333326
30,2170.1916666666666,684.469696969697,743.75,100.15477217055874,35.41666666666663
30,2175.1916666666666,695.5426356589147,750.0,99.2464804396629,29.16666666666663
30,2180.1916666666666,718.452380952381,766.6666666666667,105.81477838570616,20.833333333333258
30,2185.1916666666666,703.8690476190476,754.1666666666666,112.77778433352577,39.583333333333314
30,2190.1916666666666,714.484126984127,754.1666666666666,106.17071446077234,29.166666666666742
30,2195.1916666666666,725.1016260162602,754.1666666666666,100.6682869492174,29.166666666666742
30,2200.1916666666666,724.8983739837399,754.1666666666666,102.19164239343525,33.33333333333337
30,2205.1916666666666,721.9512195121952,754.1666666666666,103.15350780311216,29.166666666666742
30,2210.1916666666666,706.686046511628,741.6666666666667,89.91903478428507,37.499999999999886
30,2215.1916666666666,723.015873015873,754.1666666666666,83.29388342258342,29.166666666666742
30,2220.1916666666666,712.5992063492063,745.8333333333334,91.28007956933442,37.5
30,2225.1916666666666,713.7896825396825,750.0,91.61809548014494,33.33333333333337
30,2230.1916666666666,707.5581395348836,750.0,94.80668080097828,29.16666666666663
30,2235.1916666666666,704.4573643410852,741.6666666666667,94.75931703729547,37.499999999999886
30,2240.1916666666666,701.2896825396825,750.0,99.94700533129297,29.16666666666663
30,2245.1916666666666,688.6363636363636,737.5,104.15063301549719,47.916666666666686
30,2250.1916666666666,696.7054263565892,750.0,101.49982300665688,29.16666666666663
30,2255.1916666666666,687.7840909090909,739.5833333333334,102.17039764262196,41.66666666666663
30,2260.1916666666666,680.871212121212,731.25,101.32088779930694,50.0
30,2265.1916666666666,683.5227272727273,739.5833333333334,105.19820465272424,62.49999999999994
30,2270.1916666666666,686.7424242424241,743.75,103.69962246015722,58.333333333333314
30,2275.1916666666666,690.7945736434108,745.8333333333334,101.91031717952485,37.5
30,2280.1916666666666,690.5038759689924,745.8333333333334,104.52448694379018,58.33333333333337
30,2285.1916666666666,684.7537878787879,745.8333333333334,105.87148789519581,62.5
30,2290.1916666666666,680.6818181818181,739.5833333333333,107.07788839763998,68.75000000000011
30,2295.1916666666666,682.6704545454545,739.5833333333333,104.99839723543786,68.75000000000011
30,2300.1916666666666,687.594696969697,745.8333333333334,106.68653156671417,60.416666666666686
30,2305.1916666666666,685.1325757575759,745.8333333333334,103.82851208552184,52.08333333333326
30,2310.1916666666666,679.7348484848485,739.5833333333333,102.8682288372405,58.33333333333337
30,2315.1916666666666,680.9659090909091,745.8333333333334,105.01552475081586,47.91666666666657
30,2320.1916666666666,698.4496124031008,762.5,100.69214524939646,25.0
30,2325.1916666666666,706.6468253968254,762.5,98.86320105859119,25.0
30,2330.1916666666666,711.0119047619048,762.5,97.59914973124361,25.0
30,2335.1916666666666,715.1785714285714,766.6666666666667,96.63994859848633,18.75
30,2340.1916666666666,719.5436507936507,764.5833333333334,93.08532714362698,18.75
30,2345.1916666666666,735.2642276422764,762.5,78.82105238740469,16.66666666666663
30,2350.1916666666666,733.8541666666666,762.5,79.10303054171307,16.66666666666663
30,2355.1916666666666,729.6747967479674,762.5,82.89570045829605,16.66666666666663
30,2360.1916666666666,723.4756097560976,758.3333333333333,83.89785920470672,16.666666666666742
30,2365.1916666666666,724.390243902439,762.5,86.55522169366226,25.0
30,2370.1916666666666,721.4285714285714,762.5,88.6493972947805,25.0
30,2375.1916666666666,709.5238095238096,766.6666666666667,98.91555328740033,29.166666666666515
30,2380.1916666666666,696.5909090909091,762.5,103.20397288279447,33.33333333333326
30,2385.1916666666666,690.3409090909091,762.5,101.6091968369088,33.33333333333326
30,2390.1916666666666,693.8446969696969,762.5,101.66765406641667,31.249999999999943
30,2395.1916666666666,680.6818181818181,704.1666666666666,100.531898200474,75.0
30,2400.1916666666666,674.4318181818182,643.75,102.75827307321505,108.33333333333331
30,2405.1916666666666,685.5113636363636,760.4166666666666,100.60977137065206,33.333333333333314
30,2410.1916666666666,687.0155038759689,762.5,101.2904881092986,33.33333333333326
30,2415.1916666666666,694.3798449612403,758.3333333333333,98.57568551411939,25.000000000000114
30,2420.1916666666666,683.2386363636364,741.6666666666667,98.9181166193194,54.166666666666515
30,2425.1916666666666,686.6477272727271,747.9166666666667,99.97003566514468,45.8333333333332
30,2430.1916666666666,685.6060606060605,747.9166666666667,100.69788192880299,45.8333333333332
30,2435.1916666666666,673.5795454545454,691.6666666666667,99.19305875521201,83.33333333333326
30,2440.1916666666666,678.7037037037037,737.5,98.67822086889086,50.0
30,2445.1916666666666,679.9242424242425,700.0,109.00312001879276,75.0
30,2450.1916666666666,697.6190476190475,677.0833333333333,128.4389507617669,89.58333333333348
30,2455.1916666666666,702.1317829457365,733.3333333333333,124.38463641188508,62.5
30,2460.1916666666666,729.979674796748,733.3333333333333,130.33483692185737,49.999999999999886
30,2465.1916666666666,725.1016260162602,733.3333333333333,134.47263186058416,62.5
30,2470.1916666666666,722.3577235772358,733.3333333333333,135.66245673738067,62.5
30,2475.1916666666666,710.4166666666666,708.3333333333333,125.99283892628426,54.16666666666663
30,2480.1916666666666,705.1356589147288,700.0,119.5603346382132,58.33333333333326
30,2485.1916666666666,711.1111111111111,687.5,123.76649744495572,62.5
30,2490.1916666666666,703.3914728682171,700.0,110.91720113475351,66.66666666666674
30,2495.1916666666666,706.201550387597,700.0,104.8405665240009,58.33333333333326
30,2500.1916666666666,725.4065040650407,716.6666666666666,97.14592437825806,62.5
30,2505.1916666666666,726.7857142857142,758.3333333333333,105.31337470241739,43.74999999999994
30,2510.1916666666666,719.5436507936508,747.9166666666667,86.33559387067682,39.583333333333314
30,2515.1916666666666,717.2619047619048,752.0833333333333,83.06650079308125,35.41666666666674
30,2520.1916666666666,703.4722222222222,722.9166666666666,87.97979501866692,64.58333333333337
30,2525.1916666666666,705.7170542635658,733.3333333333333,89.1799391908236,50.000000000000114
30,2530.1916666666666,687.8787878787879,716.6666666666666,93.97128570471878,70.83333333333337
30,2535.1916666666666,679.5454545454546,712.5,92.14471095313137,75.0
30,2540.1916666666666,684.7537878787879,714.5833333333333,110.38583078939556,75.0
30,2545.1916666666666,677.840909090909,697.9166666666666,110.8851685894368,81.24999999999994
30,2550.1916666666666,681.8181818181816,710.4166666666667,106.19570701711721,64.58333333333331
30,2555.1916666666666,678.9772727272729,704.1666666666667,109.75864166332958,77.08333333333326
30,2560.1916666666666,680.8712121212121,704.1666666666667,109.60169173681368,77.08333333333326
30,2565.1916666666666,697.4806201550387,716.6666666666666,122.26214468463522,70.83333333333326
30,2570.1916666666666,697.4806201550387,733.3333333333333,109.87208296687228,54.16666666666674
30,2575.1916666666666,696.9961240310078,733.3333333333333,111.04782019860883,37.500000000000114
30,2580.1916666666666,690.1515151515151,718.75,112.34050892697319,54.166666666666686
30,2585.1916666666666,701.8849206349207,737.5,106.83850797365578,33.33333333333337
30,2590.1916666666666,699.3217054263566,737.5,107.47496567952892,33.33333333333326
30,2595.1916666666666,686.9186046511628,737.5,111.67977518471386,33.33333333333337
30,2600.1916666666666,677.3674242424242,718.75,114.24111237430542,60.41666666666663
30,2605.1916666666666,680.9659090909091,718.75,111.1456582054109,58.333333333333314
30,2610.1916666666666,683.5227272727273,729.1666666666667,115.41743467076688,56.249999999999886
30,2615.1916666666666,680.8712121212121,716.6666666666667,120.18947070250054,83.33333333333337
30,2620.1916666666666,693.5077519379845,725.0,114.00486131777515,66.66666666666663
30,2625.1916666666666,696.7803030303031,729.1666666666666,92.44238217187754,50.0
30,2630.1916666666666,703.4883720930233,733.3333333333333,87.16361185691483,41.66666666666674
30,2635.1916666666666,699.515503875969,733.3333333333333,91.07043333585717,45.83333333333337
30,2640.1916666666666,709.2261904761905,735.4166666666666,84.78679479165034,41.666666666666686
30,2645.1916666666666,691.3825757575758,729.1666666666666,89.71854194891138,39.58333333333343
30,2650.1916666666666,674.4444444444445,725.0,99.28564291421439,54.16666666666663
30,2655.1916666666666,672.3484848484849,729.1666666666666,100.22620938031397,43.75000000000006
30,2660.1916666666666,658.8888888888888,704.1666666666667,103.65632560719021,79.16666666666663
30,2665.1916666666666,658.3333333333335,704.1666666666667,102.98956135198726,79.16666666666663
30,2670.1916666666666,659.537037037037,729.1666666666666,102.6119669863077,41.66666666666674
30,2675.1916666666666,680.9659090909091,733.3333333333333,100.9419370260722,37.500000000000114
30,2680.1916666666666,685.7007575757576,741.6666666666667,100.35626833301434,29.16666666666663
30,2685.1916666666666,685.7954545454545,741.6666666666667,99.92454429469147,31.25
30,2690.1916666666666,687.8787878787879,741.6666666666667,98.36690639352238,29.16666666666663
30,2695.1916666666666,693.560606060606,747.9166666666667,97.46651244240846,22.916666666666686
30,2700.1916666666666,691.2878787878788,747.9166666666667,98.36280180989122,31.249999999999886
30,2705.1916666666666,668.148148148148,729.1666666666666,103.47938250596557,50.0
30,2710.1916666666666,659.2592592592592,708.3333333333334,102.65528121857683,75.00000000000011
30,2715.1916666666666,652.2644927536234,629.1666666666666,106.87662540002597,110.41666666666669
30,2720.1916666666666,659.7222222222222,633.3333333333333,107.60242947202832,112.49999999999989
30,2725.1916666666666,665.7407407407408,704.1666666666667,105.07140763052067,79.16666666666663
30,2730.1916666666666,659.2592592592592,633.3333333333333,105.01882079732687,108.33333333333348
30,2735.1916666666666,675.7575757575758,737.5,102.83950174698326,45.83333333333337
30,2740.1916666666666,673.9814814814815,733.3333333333333,102.45239238215007,50.000000000000114
30,2745.1916666666666,674.905303030303,718.75,97.34644966927932,66.66666666666669
30,2750.1916666666666,685.8901515151515,745.8333333333334,94.27754632225526,33.333333333333314
30,2755.1916666666666,670.9280303030304,672.9166666666667,96.14454286998637,89.58333333333326
30,2760.1916666666666,676.9444444444445,712.5,97.36749608020787,75.0
30,2765.1916666666666,672.7777777777778,712.5,96.44730858522352,75.0
30,2770.1916666666666,684.9806201550387,716.6666666666666,93.9785113433664,58.33333333333337
30,2775.1916666666666,690.625,725.0,95.67574251981715,54.166666666666686
30,2780.1916666666666,680.5871212121211,714.5833333333333,96.10865062176448,72.91666666666674
30,2785.1916666666666,692.5189393939395,737.5,98.38644746005517,45.83333333333337
30,2790.1916666666666,681.9767441860466,729.1666666666666,98.37351601238693,54.16666666666674
30,2795.1916666666666,687.1212121212121,741.6666666666667,98.09563547777537,41.66666666666663
30,2800.1916666666666,677.9629629629629,729.1666666666666,99.3770933258264,54.16666666666674
30,2805.1916666666666,670.6439393939394,725.0,99.91903434755135,58.33333333333337
30,2810.1916666666666,677.5568181818182,727.0833333333333,104.00652771691038,56.250000000000114
30,2815.1916666666666,662.3148148148149,687.5,102.94340667353742,83.33333333333337
30,2820.1916666666666,681.0185185185186,741.6666666666667,101.73120915897566,33.33333333333326
30,2825.1916666666666,685.9496124031008,750.0,101.18765331654166,25.0
30,2830.1916666666666,693.4108527131783,754.1666666666666,100.78737867173706,20.83333333333337
30,2835.1916666666666,685.9848484848485,752.0833333333333,101.22828869322773,22.916666666666742
30,2840.1916666666666,679.0719696969697,741.6666666666667,100.3284682802008,37.499999999999886
30,2845.1916666666666,690.4069767441861,750.0,96.70298511999769,25.0
30,2850.1916666666666,676.0416666666665,737.5,100.32298051741007,41.66666666666663
30,2855.1916666666666,653.804347826087,633.3333333333333,102.48391204276851,104.16666666666663
30,2860.1916666666666,671.6666666666666,645.8333333333334,118.5541313945114,108.33333333333326
30,2865.1916666666666,671.574074074074,645.8333333333334,120.23850748099385,108.33333333333337
30,2870.1916666666666,670.9259259259259,645.8333333333334,130.1874646576401,108.33333333333326
30,2875.1916666666666,669.1666666666667,645.8333333333334,132.27384454038884,108.33333333333337
30,2880.1916666666666,657.4275362318841,633.3333333333333,132.01873067711801,95.83333333333326
30,2885.1916666666666,676.7045454545455,654.1666666666667,129.33790281844426,104.16666666666652
30,2890.1916666666666,675.5681818181819,700.0,113.36193960786001,75.0
30,2895.1916666666666,687.8875968992248,725.0,108.80473578999671,50.0
30,2900.1916666666666,688.4469696969699,731.25,98.2726443434928,45.833333333333314
30,2905.1916666666666,679.5454545454546,725.0,99.06628926522296,52.083333333333314
30,2910.1916666666666,686.3372093023256,729.1666666666666,96.57376822660952,41.66666666666674
30,2915.1916666666666,669.2592592592592,712.5,103.1476248860867,66.66666666666663
30,2920.1916666666666,644.6557971014493,622.9166666666667,100.73289703911885,93.75000000000011
30,2925.1916666666666,645.0354609929078,625.0,99.99108617379468,91.66666666666663
30,2930.1916666666666,643.5688405797101,622.9166666666667,112.09875813503021,91.66666666666674
30,2935.1916666666666,666.9384057971014,677.0833333333333,127.10694126171164,83.33333333333337
30,2940.1916666666666,678.3333333333334,691.6666666666666,137.42422154288042,70.83333333333337
30,2945.1916666666666,683.2386363636361,693.75,136.43287053506694,70.83333333333331
30,2950.1916666666666,696.8992248062015,712.5,146.12525494129991,70.83333333333337
30,2955.1916666666666,714.6825396825398,725.0,150.27988256029408,45.83333333333337
30,2960.1916666666666,709.3023255813953,725.0,139.9252127144821,45.83333333333337
30,2965.1916666666666,704.9603174603175,716.6666666666666,141.90927962730697,64.58333333333337
30,2970.1916666666666,703.6706349206349,729.1666666666666,131.44045860126408,45.83333333333337
30,2975.1916666666666,709.1269841269841,731.25,128.42607676977718,43.75
30,2980.1916666666666,714.2441860465117,741.6666666666667,112.44572676058387,33.33333333333326
30,2985.1916666666666,698.3527131782945,745.8333333333334,111.3296692279282,29.16666666666663
30,2990.1916666666666,703.8690476190476,735.4166666666666,102.94771698885405,35.416666666666686
30,2995.1916666666666,693.4108527131783,733.3333333333333,87.13184339483787,33.333333333333485
30,3000.1916666666666,699.2248062015505,733.3333333333333,80.44218801964224,25.0
30,3005.1916666666666,695.9280303030304,729.1666666666666,79.13600301890314,29.16666666666663
30,3010.1916666666666,686.8371212121211,722.9166666666667,83.20699328835482,29.166666666666686
30,3015.1916666666666,690.6976744186046,720.8333333333334,79.01424973464957,29.16666666666663
30,3020.1916666666666,692.34496124031,729.1666666666666,85.98908195852478,33.33333333333337
30,3025.1916666666666,679.5454545454545,722.9166666666667,90.75844194927491,41.66666666666663
30,3030.1916666666666,679.9242424242425,720.8333333333334,91.24406075709115,45.83333333333337
30,3035.1916666666666,693.5077519379844,733.3333333333333,100.23246098332108,41.66666666666674
30,3040.1916666666666,699.6124031007753,733.3333333333333,95.00075689569151,33.333333333333485
30,3045.1916666666666,691.4772727272729,729.1666666666666,99.193105008755,37.500000000000114
30,3050.1916666666666,692.5189393939395,718.75,93.44461262046904,43.75
30,3055.1916666666666,699.0310077519381,729.1666666666666,91.52151751946684,33.33333333333337
30,3060.1916666666666,689.3939393939394,722.9166666666667,95.59269816122469,39.58333333333326
30,3065.1916666666666,685.6060606060605,722.9166666666667,106.56144332132952,39.58333333333326
30,3070.1916666666666,685.8901515151515,729.1666666666666,108.18122859888929,31.25
30,3075.1916666666666,691.6666666666667,729.1666666666666,105.16977330455371,29.16666666666663
30,3080.1916666666666,681.9128787878789,733.3333333333333,111.90426237997671,25.0
30,3085.1916666666666,680.3977272727274,733.3333333333333,112.78702813552994,25.0
30,3090.1916666666666,676.6098484848485,737.5,114.87486137846128,27.083333333333314
30,3095.1916666666666,669.8863636363636,737.5,98.66626579590202,22.91666666666663
30,3100.1916666666666,674.7159090909091,741.6666666666667,98.17207628811884,20.833333333333258
30,3105.1916666666666,675.6628787878789,741.6666666666667,98.93221577752938,27.083333333333314
30,3110.1916666666666,688.6627906976745,741.6666666666667,91.78980537544763,16.666666666666742
30,3115.1916666666666,692.3295454545455,741.6666666666667,90.10268681545968,20.833333333333258
30,3120.1916666666666,691.0852713178294,741.6666666666667,91.62869611919619,25.0
30,3125.1916666666666,690.1515151515151,737.5,89.99125580678346,29.166666666666686
30,3130.1916666666666,695.4457364341087,737.5,88.61167378731315,29.166666666666742
30,3135.1916666666666,688.5416666666666,737.5,91.64959760037182,27.083333333333314
30,3140.1916666666666,685.1325757575758,745.8333333333334,98.032146678314,20.83333333333337
30,3145.1916666666666,696.3178294573644,750.0,96.46191927547808,20.83333333333337
30,3150.1916666666666,708.2364341085272,745.8333333333334,87.13780086370451,20.83333333333337
30,3155.1916666666666,711.5079365079365,752.0833333333333,86.05223843894821,14.583333333333485
30,3160.1916666666666,690.625,745.8333333333334,96.16401071796217,25.0
30,3165.1916666666666,684.8484848484849,741.6666666666667,97.02907086005808,29.16666666666663
30,3170.1916666666666,676.0185185185185,737.5,97.75395715350592,29.166666666666742
30,3175.1916666666666,663.7037037037037,716.6666666666666,96.97370835558183,50.000000000000114
30,3180.1916666666666,659.1666666666666,716.6666666666666,99.12655160108834,54.16666666666674
30,3185.1916666666666,659.3518518518517,725.0,100.10314896195206,45.83333333333337
30,3190.1916666666666,679.8295454545455,741.6666666666667,97.2611995679194,20.833333333333258
30,3195.1916666666666,685.5113636363635,747.9166666666667,97.52877000647453,16.666666666666742
30,3200.1916666666666,691.860465116279,745.8333333333334,94.72248473337378,16.66666666666663
30,3205.1916666666666,687.0265151515151,745.8333333333334,97.16680922763895,16.66666666666663
30,3210.1916666666666,683.0492424242425,745.8333333333334,96.73028900392183,16.66666666666663
30,3215.1916666666666,685.6060606060606,745.8333333333334,95.65603140860375,14.583333333333371
30,3220.1916666666666,666.7592592592592,737.5,98.36690846650116,29.166666666666742
30,3225.1916666666666,667.2222222222222,737.5,97.26207696816687,25.0
30,3230.1916666666666,668.3333333333334,737.5,98.10145361828337,25.0
30,3235.1916666666666,665.8333333333334,733.3333333333333,96.85554952994421,33.333333333333485
30,3240.1916666666666,669.4444444444443,741.6666666666667,97.6564078281553,20.833333333333258
30,3245.1916666666666,662.3188405797101,681.25,99.05789444541615,77.08333333333337
30,3250.1916666666666,679.0719696969697,745.8333333333334,97.93774981814174,20.83333333333337
30,3255.1916666666666,672.4431818181819,745.8333333333334,101.19288476267239,20.83333333333337
30,3260.1916666666666,663.1481481481482,745.8333333333334,100.52715989494189,25.0
30,3265.1916666666666,668.7037037037036,745.8333333333334,101.84388360321381,37.5
30,3270.1916666666666,655.925925925926,625.0,103.97136573777527,112.5
30,3275.1916666666666,663.425925925926,641.6666666666667,118.8575698623367,108.33333333333326
30,3280.1916666666666,655.3442028985507,629.1666666666666,118.30419256303846,108.33333333333326
30,3285.1916666666666,678.3143939393939,660.4166666666667,128.7599233069504,97.91666666666652
30,3290.1916666666666,679.3560606060605,666.6666666666666,128.2961870679001,91.66666666666663
30,3295.1916666666666,688.8565891472867,695.8333333333333,126.06596063338085,70.83333333333348
30,3300.1916666666666,700.8522727272726,727.0833333333333,119.33067109709069,45.83333333333343
30,3305.1916666666666,698.546511627907,733.3333333333333,103.86019885814632,33.333333333333485
30,3310.1916666666666,677.8409090909091,714.5833333333334,110.75765589432639,54.166666666666686
30,3315.1916666666666,665.2173913043479,704.1666666666667,108.19156461473425,62.5
30,3320.1916666666666,667.6851851851851,708.3333333333334,110.61893835599695,70.83333333333326
30,3325.1916666666666,670.648148148148,708.3333333333334,110.98501367473715,66.66666666666663
30,3330.1916666666666,667.1401515151516,704.1666666666667,112.57790838484812,72.91666666666657
30,3335.1916666666666,669.9999999999999,725.0,111.16846688833586,50.0
30,3340.1916666666666,693.3139534883721,729.1666666666666,102.69250350855668,29.16666666666663
30,3345.1916666666666,700.3968253968253,733.3333333333333,102.21053351004383,33.333333333333485
30,3350.1916666666666,709.0277777777777,735.4166666666666,97.56050805838733,29.166666666666686
30,3355.1916666666666,722.3214285714286,737.5,107.47321713918053,39.583333333333314
30,3360.1916666666666,729.563492063492,745.8333333333334,104.38314710186783,33.33333333333326
30,3365.1916666666666,728.4552845528456,750.0,106.5310923861501,29.16666666666663
30,3370.1916666666666,730.7539682539684,747.9166666666667,103.37279759188037,31.249999999999886
30,3375.1916666666666,735.670731707317,750.0,84.46136927453283,20.83333333333337
30,3380.1916666666666,714.9801587301588,747.9166666666667,99.7967935518282,24.999999999999943
30,3385.1916666666666,703.8690476190476,739.5833333333334,82.16865410708655,18.749999999999886
30,3390.1916666666666,700.8928571428571,739.5833333333334,82.57036763689398,18.749999999999886
30,3395.1916666666666,701.686507936508,743.75,84.47420031069468,14.583333333333258
30,3400.1916666666666,691.9573643410853,741.6666666666667,90.44731645694947,16.666666666666742
30,3405.1916666666666,695.6395348837209,725.0,104.48741684090669,29.16666666666663
30,3410.1916666666666,705.1356589147289,725.0,96.01792612486506,25.0
30,3415.1916666666666,701.4534883720929,725.0,116.83973741919753,25.0
30,3420.1916666666666,695.2651515151515,714.5833333333333,115.39517160923961,22.916666666666686
30,3425.1916666666666,701.1627906976745,708.3333333333334,122.29995808063029,20.833333333333258
30,3430.1916666666666,720.0203252032521,700.0,140.42105430890675,25.0
30,3435.1916666666666,725.7936507936508,691.6666666666666,148.5083867473959,27.083333333333314
30,3440.1916666666666,763.6752136752137,695.8333333333333,166.05685785894332,33.33333333333326
30,3445.1916666666666,774.6794871794872,691.6666666666666,162.10135711186342,29.16666666666663
30,3450.1916666666666,802.4774774774775,687.5,162.95182751278497,25.0
30,3455.1916666666666,807.6576576576575,687.5,165.9461088055226,29.16666666666663
30,3460.1916666666666,795.9429824561403,685.4166666666667,164.77099530976028,39.58333333333337
30,3465.1916666666666,787.171052631579,683.3333333333334,162.85731557255463,31.250000000000057
30,3470.1916666666666,756.7708333333333,679.1666666666667,150.05248221236187,18.750000000000057
30,3475.1916666666666,755.5555555555555,675.0,149.51289493046187,16.66666666666663
30,3480.1916666666666,741.875,666.6666666666666,143.6603988063001,12.5
30,3485.1916666666666,733.1300813008131,666.6666666666666,136.17400792223287,12.5
30,3490.1916666666666,745.0,668.75,140.60752898752332,10.416666666666686
30,3495.1916666666666,744.8958333333334,666.6666666666666,141.4071513779491,10.416666666666686
30,3500.1916666666666,734.6544715447154,666.6666666666666,136.92886124555852,8.333333333333258
30,3505.1916666666666,734.1463414634146,666.6666666666666,137.23528657788356,8.333333333333371
30,3510.1916666666666,736.6869918699186,670.8333333333333,136.97887202818478,8.333333333333485
30,3515.1916666666666,741.6666666666666,670.8333333333333,142.20180788817933,12.499999999999886
30,3520.1916666666666,735.8739837398375,670.8333333333333,138.8409300667084,8.333333333333258
30,3525.1916666666666,719.7420634920634,670.8333333333333,123.94903556647935,6.25
30,3530.1916666666666,730.8333333333334,670.8333333333333,131.29383001714055,8.333333333333258
30,3535.1916666666666,726.3888888888889,670.8333333333333,128.2955369675087,8.333333333333371
30,3540.1916666666666,722.4206349206349,666.6666666666666,128.92533310034221,8.333333333333371
30,3545.1916666666666,717.063492063492,666.6666666666666,122.68454906980746,8.333333333333258
30,3550.1916666666666,723.1150793650793,668.75,126.97692259917852,8.333333333333314
30,3555.1916666666666,732.2154471544715,666.6666666666666,135.58651012413543,8.333333333333258
30,3560.1916666666666,731.6468253968253,666.6666666666666,135.71631800714283,8.333333333333258
30,3565.1916666666666,733.9285714285712,666.6666666666666,137.0622232385781,4.166666666666629
30,3570.1916666666666,728.5569105691056,666.6666666666666,132.19750906291324,4.166666666666629
30,3575.1916666666666,726.7276422764228,662.5,132.03132391436492,4.166666666666629
30,3580.1916666666666,722.1544715447154,666.6666666666666,128.64626020303757,8.333333333333258
30,3585.1916666666666,731.25,664.5833333333333,136.2919607882232,6.249999999999943
30,3590.1916666666666,732.1138211382113,670.8333333333333,133.64301244892218,12.499999999999886
30,3595.1916666666666,735.3658536585366,675.0,133.4833854596404,12.5
30,3600.1916666666666,747.6041666666667,679.1666666666667,140.0450410223699,12.5
30,3605.1916666666666,762.6068376068376,683.3333333333334,146.93346689814018,8.333333333333371
30,3610.1916666666666,772.1153846153846,687.5,152.17764393182256,12.5
30,3615.1916666666666,769.0625,685.4166666666667,150.92865282742702,12.500000000000114
30,3620.1916666666666,773.4649122807017,681.25,154.36109316769569,10.416666666666686
30,3625.1916666666666,800.900900900901,683.3333333333334,164.7111409962958,16.666666666666742
30,3630.1916666666666,793.3558558558558,679.1666666666667,162.34102937381996,8.333333333333485
30,3635.1916666666666,787.4999999999999,677.0833333333334,161.08619202545344,8.333333333333428
30,3640.1916666666666,785.6359649122809,675.0,162.24916355398787,8.333333333333371
30,3645.1916666666666,788.377192982456,679.1666666666667,163.55243019820747,12.500000000000114
30,3650.1916666666666,784.8290598290597,679.1666666666667,163.12712765379706,12.500000000000114
30,3655.1916666666666,751.875,683.3333333333334,144.12753903096555,12.500000000000114
30,3660.1916666666666,751.9308943089432,683.3333333333334,142.8932729911547,12.500000000000114
30,3665.1916666666666,745.2235772357724,683.3333333333334,139.25820646951365,12.499999999999886
30,3670.1916666666666,727.6785714285714,683.3333333333334,122.57754800482093,8.333333333333371
30,3675.1916666666666,721.6463414634146,683.3333333333334,113.5109649324311,8.333333333333258
30,3680.1916666666666,713.7896825396825,683.3333333333334,102.055799734838,8.333333333333258
30,3685.1916666666666,729.979674796748,683.3333333333334,122.94568694211837,8.333333333333258
30,3690.1916666666666,737.5,681.25,130.57033013326998,6.25
30,3695.1916666666666,757.1581196581195,683.3333333333334,143.2093147101929,8.333333333333371
30,3700.1916666666666,749.6875,683.3333333333334,135.6384196821632,6.249999999999943
30,3705.1916666666666,759.1666666666667,687.5,143.25156681869626,6.249999999999943
30,3710.1916666666666,769.9786324786326,687.5,148.7588130933239,4.166666666666629
30,3715.1916666666666,752.0833333333334,689.5833333333333,135.58790947787784,6.249999999999886
30,3720.1916666666666,763.4375,691.6666666666666,144.28971670519732,6.249999999999943
30,3725.1916666666666,753.3333333333333,691.6666666666666,137.6899102912461,8.333333333333258
30,3730.1916666666666,774.1228070175439,691.6666666666666,151.28378898985483,12.499999999999886
30,3735.1916666666666,786.0745614035087,691.6666666666666,158.8725890315829,12.499999999999886
30,3740.1916666666666,789.3640350877192,695.8333333333333,159.09518396373662,12.500000000000114
30,3745.1916666666666,823.7268518518517,697.9166666666666,170.8284536017485,18.749999999999886
30,3750.1916666666666,807.2072072072071,695.8333333333333,166.97497135117104,20.833333333333258
30,3755.1916666666666,786.6228070175439,691.6666666666666,160.86220710904033,16.66666666666663
30,3760.1916666666666,763.9583333333334,685.4166666666667,150.04317398611994,10.416666666666742
30,3765.1916666666666,742.3958333333334,683.3333333333334,132.69373670211985,8.333333333333371
30,3770.1916666666666,739.0625000000001,679.1666666666667,132.69977514703658,4.1666666666667425
30,3775.1916666666666,710.2713178294574,679.1666666666667,99.05868486223038,4.166666666666629
30,3780.1916666666666,712.0039682539684,679.1666666666667,101.1502376669222,4.166666666666629
30,3785.1916666666666,720.6349206349207,679.1666666666667,111.13844998545596,4.166666666666629
30,3790.1916666666666,732.6219512195123,683.3333333333334,121.31692897571038,4.166666666666629
30,3795.1916666666666,711.3372093023256,683.3333333333334,124.06837213188197,4.166666666666629
30,3800.1916666666666,706.3953488372094,687.5,113.54361923910605,8.333333333333258
30,3805.1916666666666,716.6666666666666,691.6666666666666,125.00338748797505,10.416666666666629
30,3810.1916666666666,701.3565891472867,691.6666666666666,103.0243754315581,8.333333333333258
30,3815.1916666666666,711.2103174603175,691.6666666666666,116.70835526669313,4.166666666666629
30,3820.1916666666666,722.7642276422764,691.6666666666666,132.06130718349547,8.333333333333371
30,3825.1916666666666,759.6153846153846,695.8333333333333,137.5337340535007,8.333333333333258
30,3830.1916666666666,771.474358974359,704.1666666666667,145.02765686261614,12.500000000000114
30,3835.1916666666666,756.5625,708.3333333333334,144.57758338525846,12.500000000000114
30,3840.1916666666666,761.645299145299,712.5,161.44840656292152,8.333333333333371
30,3845.1916666666666,746.875,712.5,161.96561816396854,8.333333333333371
30,3850.1916666666666,720.734126984127,712.5,147.13987344387087,8.333333333333371
30,3855.1916666666666,706.9767441860465,712.5,140.20818129615262,12.5
30,3860.1916666666666,684.6899224806202,712.5,135.87520331120604,16.666666666666742
30,3865.1916666666666,693.701550387597,716.6666666666666,131.93830006481852,12.5
30,3870.1916666666666,688.4469696969697,716.6666666666666,116.85637827289743,12.5
30,3875.1916666666666,703.391472868217,716.6666666666666,125.0768805042239,12.5
30,3880.1916666666666,718.8008130081301,716.6666666666666,133.81787592092905,16.66666666666663
30,3885.1916666666666,707.0436507936508,714.5833333333333,122.1923439309678,10.416666666666742
30,3890.1916666666666,723.2142857142857,712.5,126.04960032526989,12.5
30,3895.1916666666666,722.8174603174604,712.5,128.1488157693804,16.66666666666663
30,3900.1916666666666,716.468253968254,708.3333333333334,132.89101041013095,12.500000000000114
30,3905.1916666666666,696.0271317829457,712.5,112.7750660216195,25.0
30,3910.1916666666666,676.9444444444445,716.6666666666666,104.99518988501283,25.000000000000114
30,3915.1916666666666,679.0719696969697,725.0,106.11354528611177,22.916666666666686
30,3920.1916666666666,669.7222222222222,720.8333333333334,90.60333683957035,20.83333333333337
30,3925.1916666666666,660.4629629629629,708.3333333333334,91.42367165289345,29.16666666666663
30,3930.1916666666666,663.7962962962963,708.3333333333334,109.44152818757343,29.16666666666663
30,3935.1916666666666,668.9814814814814,708.3333333333334,105.31022127422408,20.833333333333258
30,3940.1916666666666,678.4090909090909,710.4166666666667,101.9325247669059,10.416666666666629
30,3945.1916666666666,683.3333333333335,712.5,98.34302277843085,8.333333333333371
30,3950.1916666666666,686.4341085271319,720.8333333333334,99.11185052620439,12.499999999999886
30,3955.1916666666666,690.6250000000001,720.8333333333334,98.24906470023156,12.499999999999886
30,3960.1916666666666,688.3720930232558,720.8333333333334,79.16435950864769,12.499999999999886
30,3965.1916666666666,681.6287878787879,727.0833333333333,88.0648902140863,12.500000000000114
30,3970.1916666666666,670.0925925925927,720.8333333333334,92.405292463129,20.83333333333337
30,3975.1916666666666,665.2777777777778,720.8333333333334,95.61486956968713,33.33333333333326
30,3980.1916666666666,659.1485507246376,720.8333333333334,98.30594237631264,50.0
30,3985.1916666666666,654.0760869565217,716.6666666666666,98.82601438468842,58.33333333333337
30,3990.1916666666666,657.2463768115941,716.6666666666666,96.59893373597072,39.58333333333343
30,3995.1916666666666,657.8703703703704,716.6666666666666,95.27266087505505,29.166666666666742
30,4000.1916666666666,679.6401515151515,722.9166666666667,103.44992137020238,22.91666666666663
30,4005.1916666666666,667.5,716.6666666666666,106.90196585203802,29.166666666666742
30,4010.1916666666666,666.2037037037038,716.6666666666666,107.81571497264082,29.166666666666742
30,4015.1916666666666,682.8598484848485,727.0833333333333,107.07458908092944,33.333333333333314
30,4020.1916666666666,689.6780303030305,731.25,107.77842615454395,35.41666666666674
30,4025.1916666666666,694.4128787878789,727.0833333333333,102.26339988918092,37.5
30,4030.1916666666666,672.4431818181819,718.75,97.54005963748966,47.91666666666674
30,4035.1916666666666,690.719696969697,731.25,92.66050236543104,35.41666666666674
30,4040.1916666666666,707.5396825396825,735.4166666666666,79.72491500481823,31.250000000000114
30,4045.1916666666666,693.8953488372092,729.1666666666666,87.35034839137731,29.16666666666663
30,4050.1916666666666,685.8527131782945,729.1666666666666,85.96604941787369,29.16666666666663
30,4055.1916666666666,684.7868217054263,729.1666666666666,90.3763978470379,25.0
30,4060.1916666666666,681.8518518518518,729.1666666666666,90.24008537150407,29.16666666666663
30,4065.1916666666666,662.6851851851852,716.6666666666666,93.76875046310415,41.66666666666663
30,4070.1916666666666,650.0000000000001,627.0833333333333,95.73062128625223,102.08333333333326
30,4075.1916666666666,653.9855072463768,670.8333333333333,94.15788438946548,75.00000000000011
30,4080.1916666666666,665.0925925925926,725.0,94.89531416752877,37.5
30,4085.1916666666666,663.6111111111111,733.3333333333333,95.87202776133772,33.333333333333485
30,4090.1916666666666,673.6742424242423,735.4166666666666,96.21290153557034,22.91666666666663
30,4095.1916666666666,690.3100775193799,741.6666666666667,90.40309188855059,12.499999999999886
30,4100.191666666667,678.7037037037036,737.5,93.58875958315856,20.833333333333258
30,4105.191666666667,672.5378787878788,735.4166666666666,93.29646187278377,22.91666666666663
30,4110.191666666667,660.5072463768115,727.0833333333333,96.80760451535895,35.41666666666674
30,4115.191666666667,658.1521739130434,675.0,99.21356081448779,83.33333333333326
30,4120.191666666667,666.1111111111112,716.6666666666666,113.2153184570592,91.66666666666663
30,4125.191666666667,658.7862318840579,622.9166666666667,113.3361528137495,102.08333333333326
30,4130.191666666667,670.8333333333333,720.8333333333333,114.27151016843922,77.08333333333331
30,4135.191666666667,677.0370370370371,729.1666666666666,113.92414458004085,41.66666666666674
30,4140.191666666667,686.3372093023255,729.1666666666666,113.888860753222,54.16666666666674
30,4145.191666666667,681.6287878787879,729.1666666666666,113.53535268632281,54.16666666666674
30,4150.191666666667,668.8888888888889,729.1666666666666,100.2624397178815,54.16666666666674
30,4155.191666666667,681.25,735.4166666666666,100.95034532988099,47.91666666666674
30,4160.191666666667,690.719696969697,737.5,98.56391158840184,43.75
30,4165.191666666667,690.1162790697674,745.8333333333334,99.7020331613797,37.5
30,4170.191666666667,688.9204545454545,745.8333333333334,98.61338054507411,27.083333333333314
30,4175.191666666667,697.6744186046511,754.1666666666666,94.90275553038359,20.83333333333337
30,4180.191666666667,697.6744186046511,754.1666666666666,96.11459040510569,20.83333333333337
30,4185.191666666667,690.5038759689922,750.0,94.33930998210445,20.83333333333337
30,4190.191666666667,671.0227272727274,735.4166666666666,98.88736049553562,37.50000000000006
30,4195.191666666667,667.5,729.1666666666666,100.20732926479897,54.16666666666674
30,4200.191666666667,653.3514492753624,622.9166666666667,99.65844279375004,95.83333333333343
30,4205.191666666667,659.3297101449274,633.3333333333333,98.04487187079717,104.16666666666663
30,4210.191666666667,660.0,633.3333333333333,97.11104754638143,104.16666666666663
30,4215.191666666667,662.8703703703703,733.3333333333333,98.07499378109966,50.000000000000114
30,4220.191666666667,679.0740740740741,745.8333333333334,97.39540851831225,29.16666666666663
30,4225.191666666667,673.2007575757575,735.4166666666666,97.11353261243767,41.666666666666686
30,4230.191666666667,681.25,743.75,96.30403446514359,29.166666666666686
30,4235.191666666667,668.7037037037037,741.6666666666667,101.03091641586452,37.499999999999886
30,4240.191666666667,673.7037037037037,745.8333333333334,102.15412751719384,33.33333333333326
30,4245.191666666667,669.2592592592592,716.6666666666666,100.4970636007248,62.5
30,4250.191666666667,664.9074074074075,662.5,89.98320238555662,87.5
30,4255.191666666667,676.3888888888889,695.8333333333333,83.39486364775883,66.66666666666674
30,4260.191666666667,689.9621212121211,697.9166666666666,104.73032838812598,60.416666666666686
30,4265.191666666667,713.7896825396825,697.9166666666666,125.51886922100624,54.16666666666663
30,4270.191666666667,719.5436507936508,693.75,126.43983787153783,45.833333333333314
30,4275.191666666667,716.2698412698413,689.5833333333333,130.71232792894065,47.91666666666663
30,4280.191666666667,732.8252032520326,704.1666666666667,142.1535601188783,50.000000000000114
30,4285.191666666667,727.6422764227643,704.1666666666667,146.8912700727216,58.33333333333337
30,4290.191666666667,724.4918699186992,716.6666666666666,127.56124319550455,54.16666666666663
30,4295.191666666667,715.7738095238095,704.1666666666667,112.54529242693442,41.66666666666674
30,4300.191666666667,706.9444444444445,700.0,120.05343585923704,47.916666666666686
30,4305.191666666667,707.3643410852712,695.8333333333333,115.72335909842809,45.833333333333485
30,4310.191666666667,701.4534883720931,695.8333333333333,106.42738740780767,62.5
30,4315.191666666667,705.8531746031746,697.9166666666666,102.80640106913185,52.08333333333337
30,4320.191666666667,706.0515873015872,697.9166666666666,107.56136137495496,77.08333333333326
30,4325.191666666667,717.581300813008,725.0,121.62282384687427,62.5
30,4330.191666666667,722.2560975609756,737.5,110.10021380517752,45.83333333333337
30,4335.191666666667,733.4349593495936,754.1666666666666,107.5310347840772,29.166666666666742
30,4340.191666666667,739.7916666666667,745.8333333333334,112.66784724764562,37.5
30,4345.191666666667,720.6349206349206,745.8333333333334,125.82368313879323,37.5
30,4350.191666666667,715.0793650793652,741.6666666666667,125.82031773581961,33.333333333333314
30,4355.191666666667,694.8863636363637,735.4166666666666,101.90317371068055,31.25
30,4360.191666666667,681.8518518518518,725.0,105.64539637643048,37.5
30,4365.191666666667,666.7613636363636,706.25,108.09263898025074,52.08333333333326
30,4370.191666666667,656.5217391304348,712.5,95.83797160238122,41.66666666666663
30,4375.191666666667,673.8888888888889,725.0,111.7624532640366,25.0
30,4380.191666666667,680.2777777777777,725.0,109.20179286832504,20.83333333333337
30,4385.191666666667,676.8939393939395,720.8333333333334,111.08409349698957,29.16666666666663
30,4390.191666666667,699.4047619047619,733.3333333333333,105.06954815583308,24.999999999999943
30,4395.191666666667,700.0968992248062,729.1666666666666,103.19182087219012,25.0
30,4400.191666666667,682.7651515151515,718.75,114.45364722013892,37.49999999999994
30,4405.191666666667,661.4814814814814,708.3333333333334,102.92500715941404,49.999999999999886
30,4410.191666666667,641.8478260869565,679.1666666666666,104.29050609636404,79.16666666666663
30,4415.191666666667,639.1843971631206,666.6666666666666,104.85158727994467,87.49999999999989
30,4420.191666666667,627.2569444444445,602.0833333333333,99.92594159764778,102.08333333333337
30,4425.191666666667,638.918439716312,666.6666666666666,114.09985812260919,75.0
30,4430.191666666667,653.2608695652174,702.0833333333333,112.1717193962608,50.00000000000006
30,4435.191666666667,662.962962962963,712.5,108.7122678585104,37.5
30,4440.191666666667,672.962962962963,720.8333333333334,107.48363681482178,29.16666666666663
30,4445.191666666667,666.9444444444446,712.5,107.86393060357351,37.5
30,4450.191666666667,679.3518518518518,729.1666666666666,105.47270472591367,20.83333333333337
30,4455.191666666667,675.0925925925925,733.3333333333333,92.73009571306386,16.666666666666742
30,4460.191666666667,673.3901515151516,727.0833333333333,112.4953914828784,22.916666666666742
30,4465.191666666667,661.4130434782608,720.8333333333333,115.74515289496811,31.250000000000057
30,4470.191666666667,667.0370370370372,725.0,112.24656576650733,25.0
30,4475.191666666667,663.3333333333334,716.6666666666666,113.36159963906327,33.33333333333337
30,4480.191666666667,647.3731884057971,614.5833333333334,115.47459335112704,97.91666666666663
30,4485.191666666667,642.1195652173914,610.4166666666666,114.61566298411506,97.91666666666663
30,4490.191666666667,646.8971631205675,620.8333333333334,94.89724008290251,100.0
30,4495.191666666667,657.8703703703704,716.6666666666666,94.24416152165773,45.83333333333337
30,4500.191666666667,649.3659420289854,620.8333333333334,99.7874569641118,100.0
30,4505.191666666667,663.2407407407408,716.6666666666666,97.75449533410057,45.83333333333337
30,4510.191666666667,675.5681818181819,722.9166666666667,96.27506431047887,43.75
30,4515.191666666667,672.962962962963,725.0,99.34532473436724,41.66666666666674
30,4520.191666666667,682.0075757575759,737.5,98.47747912472965,29.166666666666742
30,4525.191666666667,678.7962962962962,737.5,99.94799082427421,29.166666666666742
30,4530.191666666667,682.3863636363637,739.5833333333334,96.25943205389049,27.08333333333337
30,4535.191666666667,670.3703703703703,733.3333333333333,101.31016038424738,33.333333333333485
30,4540.191666666667,665.6481481481482,725.0,101.14619146690784,41.66666666666674
30,4545.191666666667,678.9772727272727,725.0,93.5282888495669,35.41666666666663
30,4550.191666666667,658.5185185185186,704.1666666666667,96.59592645581044,66.66666666666663
30,4555.191666666667,670.8333333333333,722.9166666666667,95.73427640916582,47.91666666666663
30,4560.191666666667,673.3901515151515,725.0,95.14292894995127,43.75000000000006
30,4565.191666666667,689.2441860465117,729.1666666666666,91.11591655569661,37.500000000000114
30,4570.191666666667,693.4659090909091,733.3333333333333,89.6735291713115,33.333333333333485
30,4575.191666666667,691.3825757575759,750.0,96.07694738351225,20.83333333333337
30,4580.191666666667,691.2878787878788,750.0,95.69976444202393,20.83333333333337
30,4585.191666666667,682.6704545454545,743.75,98.19488011827465,25.000000000000057
30,4590.191666666667,676.1111111111111,745.8333333333334,99.47542333905822,25.0
30,4595.191666666667,677.6851851851852,737.5,99.50618110732324,33.33333333333337
30,4600.191666666667,671.6856060606061,737.5,100.16370460807038,35.416666666666686
30,4605.191666666667,660.0925925925926,625.0,101.1474917899521,108.33333333333326
30,4610.191666666667,663.0555555555555,733.3333333333333,101.45563044747664,37.500000000000114
30,4615.191666666667,655.7971014492754,625.0,100.3369256957695,102.08333333333331
30,4620.191666666667,657.6851851851851,629.1666666666666,101.79867375144586,108.33333333333326
30,4625.191666666667,647.1920289855074,620.8333333333334,101.43284567616433,95.83333333333337
30,4630.191666666667,645.6560283687944,620.8333333333334,101.56890288924451,95.83333333333337
30,4635.191666666667,656.8840579710144,627.0833333333333,102.41760234973367,106.25
30,4640.191666666667,666.2037037037038,737.5,103.01339699630478,37.5
30,4645.191666666667,682.3863636363635,750.0,102.86929925697851,25.0
30,4650.191666666667,690.814393939394,758.3333333333333,101.51699629791185,16.666666666666742
30,4655.191666666667,697.1899224806201,750.0,96.06476941356087,25.0
30,4660.191666666667,705.4563492063492,758.3333333333333,93.08532714362697,16.666666666666742
30,4665.191666666667,697.1899224806202,754.1666666666666,97.18134456779465,20.83333333333337
30,4670.191666666667,687.3062015503875,745.8333333333334,100.79853741900358,29.16666666666663
30,4675.191666666667,687.2093023255813,745.8333333333334,99.66210833276783,29.16666666666663
30,4680.191666666667,671.7803030303031,733.3333333333333,101.15157207497752,41.66666666666674
30,4685.191666666667,666.8518518518518,737.5,103.5358000729469,45.83333333333337
30,4690.191666666667,662.0471014492756,629.1666666666666,103.18697917094022,112.5
30,4695.191666666667,659.9074074074074,629.1666666666666,101.98584123578206,108.33333333333326
30,4700.191666666667,671.3888888888889,733.3333333333333,99.46828335675345,41.66666666666674
30,4705.191666666667,663.0434782608696,635.4166666666666,98.40004287602329,102.08333333333331
30,4710.191666666667,676.8518518518518,737.5,96.15622299142969,33.33333333333337
30,4715.191666666667,682.7651515151515,737.5,94.62966247909131,37.5
30,4720.191666666667,698.1150793650793,741.6666666666667,91.81530069581795,33.33333333333326
30,4725.191666666667,700.8720930232557,745.8333333333334,91.52928982451192,25.0
30,4730.191666666667,689.6780303030304,745.8333333333334,96.67639217133215,31.249999999999943
30,4735.191666666667,699.6124031007752,754.1666666666666,95.58635338588569,20.83333333333337
30,4740.191666666667,706.4484126984127,760.4166666666666,94.17845805803294,18.749999999999943
30,4745.191666666667,717.063492063492,764.5833333333334,94.15420776908805,18.75
30,4750.191666666667,702.2286821705425,758.3333333333333,98.3299234225547,29.166666666666742
30,4755.191666666667,702.3809523809524,743.75,89.39888298376914,45.833333333333314
30,4760.191666666667,717.6829268292682,750.0,96.20751446798947,37.5
30,4765.191666666667,709.0277777777778,739.5833333333334,100.06737511236592,47.91666666666663
30,4770.191666666667,688.9204545454545,722.9166666666667,106.52160975356796,64.58333333333326
30,4775.191666666667,678.6931818181819,720.8333333333334,102.35524184831297,43.75
30,4780.191666666667,689.4886363636365,727.0833333333333,100.22781155422862,35.41666666666674
30,4785.191666666667,689.7727272727271,731.25,112.75435839510527,33.33333333333337
30,4790.191666666667,681.6666666666667,725.0,100.84241131186779,41.66666666666663
30,4795.191666666667,678.125,706.25,99.8954758968151,56.25
30,4800.191666666667,699.9031007751938,729.1666666666666,118.66377533796006,45.83333333333326
30,4805.191666666667,701.6472868217055,720.8333333333334,118.64862539701402,50.0
30,4810.191666666667,693.798449612403,691.6666666666666,121.93115174037696,70.83333333333337
30,4815.191666666667,697.3837209302326,745.8333333333334,115.29817873534456,25.0
30,4820.191666666667,681.9767441860466,741.6666666666667,123.24737234604837,33.33333333333326
30,4825.191666666667,689.8674242424242,737.5,119.95772607849968,31.250000000000057
30,4830.191666666667,671.4015151515151,725.0,99.17127093852872,39.583333333333314
30,4835.191666666667,663.6111111111111,712.5,99.77642304652737,45.83333333333326
30,4840.191666666667,662.2222222222223,712.5,97.47199157406267,41.66666666666663
30,4845.191666666667,666.3888888888889,712.5,92.87852526039298,29.166666666666742
30,4850.191666666667,679.0740740740742,720.8333333333334,87.14977207179663,20.83333333333337
30,4855.191666666667,681.7234848484849,714.5833333333333,101.76580465145912,31.25
30,4860.191666666667,689.2045454545454,729.1666666666666,99.06832700490533,22.91666666666663
30,4865.191666666667,706.4484126984127,737.5,93.70969043503378,25.0
30,4870.191666666667,705.1356589147287,733.3333333333333,93.3903472106987,29.166666666666742
30,4875.191666666667,687.4053030303031,735.4166666666666,106.3339979428531,37.5
30,4880.191666666667,673.0113636363636,718.75,110.24875208166733,54.166666666666686
30,4885.191666666667,680.2083333333333,737.5,97.2287396302015,29.166666666666742
30,4890.191666666667,661.7592592592592,712.5,101.53994558765473,62.5
30,4895.191666666667,655.5253623188407,706.25,96.8407370624784,66.66666666666669
30,4900.191666666667,659.7222222222223,716.6666666666666,98.5573014376239,54.16666666666674
30,4905.191666666667,674.1477272727271,729.1666666666666,96.98948513768245,41.66666666666674
30,4910.191666666667,692.5189393939394,739.5833333333334,90.16377014583502,25.000000000000057
30,4915.191666666667,684.9431818181819,733.3333333333333,93.3609105381582,33.333333333333485
30,4920.191666666667,685.9848484848486,733.3333333333333,93.61948671203325,33.333333333333485
30,4925.191666666667,684.753787878788,745.8333333333334,97.93550116489462,22.916666666666686
30,4930.191666666667,674.4444444444445,737.5,100.32538602371824,33.33333333333337
30,4935.191666666667,663.858695652174,729.1666666666666,102.35292952311904,39.58333333333343
30,4940.191666666667,664.0740740740741,729.1666666666666,103.05577677016198,37.500000000000114
30,4945.191666666667,653.7962962962963,725.0,103.31401877707502,45.83333333333337
30,4950.191666666667,677.9356060606059,739.5833333333334,97.92163332882248,16.666666666666572
30,4955.191666666667,678.9772727272727,739.5833333333334,98.36336153592661,22.91666666666663
30,4960.191666666667,680.3030303030303,741.6666666666667,98.40197494346471,20.833333333333258
30,4965.191666666667,678.5037878787879,741.6666666666667,96.48180994053224,25.0
30,4970.191666666667,669.6296296296297,733.3333333333333,98.25506572445144,37.500000000000114
30,4975.191666666667,676.2962962962962,733.3333333333333,94.65190004928857,29.166666666666742
30,4980.191666666667,659.6014492753623,666.6666666666667,99.30650568782993,87.49999999999994
30,4985.191666666667,653.713768115942,622.9166666666667,96.78563983273268,97.91666666666674
30,4990.191666666667,646.195652173913,622.9166666666667,95.62104541551163,97.91666666666674
30,4995.191666666667,667.6851851851853,712.5,97.9837598777243,66.66666666666663
30,5000.191666666667,679.5454545454546,731.25,98.16146696351584,39.58333333333337
30,5005.191666666667,682.1969696969697,745.8333333333334,99.82770863739357,29.16666666666663
30,5010.191666666667,688.0813953488373,745.8333333333334,98.14997279089387,29.16666666666663
30,5015.191666666667,684.4696969696969,756.25,103.32944024128784,20.833333333333314
30,5020.191666666667,684.8484848484849,750.0,100.09721900964524,29.16666666666663
30,5025.191666666667,667.7777777777778,670.8333333333333,100.73279485647144,95.83333333333348
30,5030.191666666667,665.0925925925925,670.8333333333333,99.39165053669514,91.66666666666674
30,5035.191666666667,669.1666666666666,700.0,99.81596069818198,70.83333333333337
30,5040.191666666667,675.648148148148,741.6666666666667,99.09213663661652,33.33333333333326
30,5045.191666666667,684.185606060606,745.8333333333334,94.66800561279535,22.916666666666686
30,5050.191666666667,696.8992248062015,754.1666666666666,93.29405451501384,12.499999999999886
30,5055.191666666667,687.8875968992247,750.0,95.62094284321387,16.666666666666742
30,5060.191666666667,690.6976744186046,750.0,95.7549593657694,20.83333333333337
30,5065.191666666667,681.155303030303,747.9166666666667,98.02840250316261,35.41666666666663
30,5070.191666666667,670.6439393939395,735.4166666666666,99.2337997694254,47.91666666666674
30,5075.191666666667,670.7386363636363,735.4166666666666,99.19527890094763,47.91666666666674
30,5080.191666666667,676.1363636363635,743.75,101.03775020925545,39.58333333333337
30,5085.191666666667,693.3712121212121,750.0,98.09357753195955,31.25
30,5090.191666666667,696.0271317829458,754.1666666666666,99.2196465802181,25.0
30,5095.191666666667,699.9007936507936,754.1666666666666,97.74510612666231,25.0
30,5100.191666666667,704.1666666666665,750.0,95.49630176500894,25.0
30,5105.191666666667,703.9728682170543,754.1666666666666,96.07867787171853,25.0
30,5110.191666666667,711.1434108527133,758.3333333333333,91.67893555265529,20.833333333333258
30,5115.191666666667,719.8170731707318,766.6666666666667,87.69215254449043,12.499999999999886
30,5120.191666666667,715.5753968253969,762.5,86.92980847869279,12.5
30,5125.191666666667,716.3690476190477,758.3333333333333,85.03542650643007,16.66666666666663
30,5130.191666666667,726.4227642276423,766.6666666666667,80.2048687352251,8.333333333333258
30,5135.191666666667,722.5198412698412,764.5833333333334,84.98893760614581,14.583333333333314
30,5140.191666666667,721.849593495935,766.6666666666667,85.89187166365731,16.66666666666663
30,5145.191666666667,705.1356589147287,762.5,94.08268664148487,16.66666666666663
30,5150.191666666667,706.2984496124031,762.5,94.9074149102507,20.83333333333337
30,5155.191666666667,699.8062015503875,762.5,98.28200792779012,20.83333333333337
30,5160.191666666667,694.8643410852715,758.3333333333333,99.04820359135518,25.000000000000114
30,5165.191666666667,683.4302325581396,754.1666666666666,100.13833178559435,20.83333333333337
30,5170.191666666667,674.9074074074074,683.3333333333334,94.22434245756266,79.16666666666663
30,5175.191666666667,680.2083333333334,685.4166666666667,105.22955787905407,77.08333333333326
30,5180.191666666667,653.9855072463769,654.1666666666667,107.82271586682222,89.58333333333337
30,5185.191666666667,678.9814814814814,675.0,136.98524962169083,83.33333333333326
30,5190.191666666667,677.5925925925926,675.0,135.35193350476837,75.0
30,5195.191666666667,696.5909090909091,706.25,130.02891973369998,43.75
30,5200.191666666667,700.5813953488373,720.8333333333334,130.93256964473676,29.16666666666663
30,5205.191666666667,708.4325396825398,731.25,118.37629507265005,22.91666666666663
30,5210.191666666667,746.875,737.5,103.0376853444389,20.833333333333314
30,5215.191666666667,736.1458333333334,737.5,94.4714053083798,25.0
30,5220.191666666667,728.8617886178862,729.1666666666666,106.91941995960622,33.33333333333337
30,5225.191666666667,718.3943089430894,712.5,116.91556637696544,66.66666666666663
30,5230.191666666667,713.6904761904761,706.25,120.643198159276,70.83333333333331
30,5235.191666666667,709.4961240310078,704.1666666666667,123.21921193940649,70.83333333333348
30,5240.191666666667,695.6395348837209,708.3333333333334,119.69894958625848,75.0
30,5245.191666666667,695.0581395348838,737.5,100.58219994969691,41.66666666666663
30,5250.191666666667,695.7364341085271,750.0,96.21425490694779,25.0
30,5255.191666666667,695.2519379844961,745.8333333333334,92.4103195474034,25.0
30,5260.191666666667,699.1279069767442,750.0,93.95835814386962,20.83333333333337
30,5265.191666666667,688.2575757575759,737.5,96.20660674601966,33.33333333333337
30,5270.191666666667,703.4883720930233,745.8333333333334,86.21472053063624,25.0
30,5275.191666666667,696.9961240310076,725.0,83.26051174060247,33.33333333333326
30,5280.191666666667,710.813492063492,735.4166666666667,77.11043537951679,31.25
30,5285.191666666667,701.5503875968992,741.6666666666667,86.75525489843078,29.16666666666663
30,5290.191666666667,684.375,720.8333333333333,94.1743196794121,45.833333333333485
30,5295.191666666667,693.0232558139535,741.6666666666667,92.24529197056395,29.166666666666742
30,5300.191666666667,680.0189393939394,731.25,97.74830712141353,37.50000000000006
30,5305.191666666667,667.2101449275364,727.0833333333333,101.85247401361725,47.91666666666674
30,5310.191666666667,670.8333333333334,716.6666666666666,112.05720941473682,50.000000000000114
30,5315.191666666667,689.6780303030303,722.9166666666667,123.13036093984844,35.41666666666663
30,5320.191666666667,693.4108527131782,725.0,121.13820515072513,33.33333333333326
30,5325.191666666667,689.1098484848485,720.8333333333334,136.94306962879264,37.499999999999886
30,5330.191666666667,681.344696969697,718.75,139.20422785004493,72.91666666666663
30,5335.191666666667,695.8333333333334,716.6666666666666,149.3952757375494,45.83333333333337
30,5340.191666666667,697.1899224806201,729.1666666666666,141.65126238096445,58.33333333333337
30,5345.191666666667,701.984126984127,718.75,151.04434913580454,70.83333333333331
30,5350.191666666667,695.6439393939394,710.4166666666667,151.87500211464825,81.24999999999989
30,5355.191666666667,696.8992248062015,704.1666666666667,149.65263190963267,87.49999999999989
30,5360.191666666667,727.5406504065041,729.1666666666666,151.33915545191775,58.33333333333337
30,5365.191666666667,713.4920634920634,733.3333333333333,144.96054015165024,58.33333333333337
30,5370.191666666667,703.5852713178294,704.1666666666667,153.13517376673295,87.49999999999989
30,5375.191666666667,676.6666666666666,683.3333333333334,137.3518485606594,87.5
30,5380.191666666667,690.7945736434108,720.8333333333334,134.82105932915914,70.83333333333326
30,5385.191666666667,697.8682170542635,737.5,121.6188618746148,37.5
30,5390.191666666667,681.1046511627906,733.3333333333333,111.69741949940094,41.66666666666674
30,5395.191666666667,696.3178294573643,733.3333333333333,120.68001117758514,33.333333333333485
30,5400.191666666667,684.1856060606061,727.0833333333333,113.36546065329242,37.500000000000114
30,5405.191666666667,699.515503875969,729.1666666666666,104.63865016524288,33.33333333333337
30,5410.191666666667,694.186046511628,720.8333333333334,101.11457047088226,33.33333333333337
30,5415.191666666667,696.0271317829456,716.6666666666666,118.57827840196207,45.83333333333337
30,5420.191666666667,707.4612403100775,720.8333333333334,117.28351010410775,50.000000000000114
30,5425.191666666667,692.829457364341,725.0,111.38603975518673,54.16666666666674
30,5430.191666666667,721.3414634146342,737.5,119.10835957705996,50.0
30,5435.191666666667,715.1785714285713,737.5,122.88116625476677,50.0
30,5440.191666666667,724.0079365079364,745.8333333333334,123.87641883808084,41.66666666666663
30,5445.191666666667,721.849593495935,745.8333333333334,108.84407045605072,41.66666666666663
30,5450.191666666667,724.6031746031747,752.0833333333333,107.64245588734626,33.333333333333314
30,5455.191666666667,716.8650793650794,752.0833333333333,109.48400928949371,35.41666666666674
30,5460.191666666667,700.3875968992247,720.8333333333334,89.03980532574964,54.16666666666663
30,5465.191666666667,715.040650406504,720.8333333333334,95.60606225321902,58.33333333333326
30,5470.191666666667,711.5079365079366,710.4166666666667,109.5839690691068,54.16666666666674
30,5475.191666666667,707.7519379844962,704.1666666666667,121.52436977766432,58.33333333333337
30,5480.191666666667,706.6468253968254,702.0833333333334,123.59666023226676,58.333333333333314
30,5485.191666666667,718.452380952381,706.25,119.07411145409837,56.25
30,5490.191666666667,713.3928571428571,704.1666666666667,128.27860104877425,77.08333333333326
30,5495.191666666667,699.9053030303031,706.25,122.81517172292841,77.08333333333337
30,5500.191666666667,701.3565891472867,745.8333333333334,112.03136124013044,54.16666666666663
30,5505.191666666667,699.2248062015505,745.8333333333334,103.30699154595666,45.83333333333326
30,5510.191666666667,685.5113636363636,737.5,105.22327926060683,60.41666666666663
30,5515.191666666667,694.3798449612403,745.8333333333334,104.05106172709742,49.999999999999886
30,5520.191666666667,694.4767441860465,733.3333333333333,98.33148761649116,54.16666666666674
30,5525.191666666667,690.6976744186046,725.0,95.94471274914429,62.5
30,5530.191666666667,679.9242424242425,697.9166666666666,96.23597890790967,81.25
30,5535.191666666667,685.6589147286822,695.8333333333333,107.0717997833559,66.66666666666663
30,5540.191666666667,679.8295454545455,685.4166666666667,104.33878486287814,62.5
30,5545.191666666667,681.344696969697,685.4166666666667,107.93190621633902,66.66666666666657
30,5550.191666666667,687.5,685.4166666666667,111.71669595471735,70.83333333333331
30,5555.191666666667,704.2635658914728,704.1666666666667,107.68843600598687,75.00000000000011
30,5560.191666666667,700.8720930232558,712.5,112.0123105786874,83.33333333333337
30,5565.191666666667,690.625,708.3333333333334,104.57912527437038,87.5
30,5570.191666666667,698.9341085271318,733.3333333333333,106.02740074329596,74.99999999999989
30,5575.191666666667,683.2386363636364,708.3333333333334,106.73571770385098,89.58333333333326
30,5580.191666666667,683.9015151515151,702.0833333333334,106.94394869755654,93.75
30,5585.191666666667,673.4848484848485,656.25,110.41562786220028,114.58333333333337
30,5590.191666666667,691.1821705426356,695.8333333333333,110.30789529534475,100.0
30,5595.191666666667,706.2500000000001,775.0,107.38819262837588,31.250000000000057
30,5600.191666666667,721.8253968253969,783.3333333333334,102.91652070284209,20.83333333333337
30,5605.191666666667,741.4583333333334,779.1666666666667,84.04583227666274,22.916666666666742
30,5610.191666666667,735.1626016260163,766.6666666666667,87.66873007556532,29.166666666666515
30,5615.191666666667,737.9065040650406,766.6666666666667,84.59875104788361,29.166666666666515
30,5620.191666666667,721.7261904761905,764.5833333333334,93.27186435063099,27.083333333333314
30,5625.191666666667,699.3217054263566,754.1666666666666,98.92331348837658,29.166666666666742
30,5630.191666666667,678.5037878787879,737.5,98.76475121980268,43.75
30,5635.191666666667,684.9431818181818,737.5,104.81086042991537,66.66666666666669
30,5640.191666666667,691.3759689922481,737.5,104.48125254622786,62.5
30,5645.191666666667,702.1317829457364,758.3333333333333,102.84628277743903,41.66666666666674
30,5650.191666666667,713.8888888888889,762.5,99.34007634303998,37.5
30,5655.191666666667,718.452380952381,766.6666666666667,98.17587148663503,33.33333333333326
30,5660.191666666667,714.5833333333334,770.8333333333334,100.9115382408548,29.16666666666663
30,5665.191666666667,696.8992248062016,754.1666666666666,102.51505335025647,50.000000000000114
30,5670.191666666667,696.5116279069767,758.3333333333333,103.1094373881642,45.833333333333485
30,5675.191666666667,666.3825757575759,635.4166666666667,105.44141606425322,91.6666666666668
30,5680.191666666667,666.9507575757576,635.4166666666667,103.74292777829348,93.75000000000011
30,5685.191666666667,676.4204545454545,647.9166666666667,109.220218764058,108.33333333333343
30,5690.191666666667,694.5736434108527,750.0,111.6499886996015,91.66666666666663
30,5695.191666666667,692.2480620155037,750.0,112.58294045549054,91.66666666666663
30,5700.191666666667,697.3837209302326,750.0,124.90745004958079,91.66666666666663
30,5705.191666666667,718.8492063492063,768.75,119.44371291495553,41.666666666666686
30,5710.191666666667,703.0038759689922,750.0,122.84964402687224,75.0
30,5715.191666666667,693.2765151515151,750.0,120.25293618220567,68.74999999999994
30,5720.191666666667,684.564393939394,731.25,117.0970037587992,60.41666666666663
30,5725.191666666667,681.1111111111111,704.1666666666667,115.32507852749869,74.99999999999989
30,5730.191666666667,669.4444444444446,704.1666666666667,98.23248552348257,74.99999999999989
30,5735.191666666667,659.1485507246376,645.8333333333333,98.8382343938814,97.91666666666674
30,5740.191666666667,661.7592592592592,654.1666666666666,99.0934639133577,104.16666666666663
30,5745.191666666667,667.8703703703703,704.1666666666667,97.40810152932136,70.83333333333348
30,5750.191666666667,663.8888888888889,654.1666666666666,97.92271096753973,104.16666666666663
30,5755.191666666667,684.4961240310078,737.5,101.43776918074059,50.0
30,5760.191666666667,691.4728682170543,754.1666666666666,104.42410049819861,37.5
30,5765.191666666667,692.7325581395348,754.1666666666666,103.35834400045816,41.66666666666663
30,5770.191666666667,696.4962121212121,754.1666666666666,102.88530962301029,39.583333333333314
30,5775.191666666667,695.9302325581396,754.1666666666666,103.37991930265758,41.66666666666663
30,5780.191666666667,703.8690476190475,762.5,101.03375254876163,31.249999999999943
30,5785.191666666667,678.148148148148,650.0,103.43361594204391,112.5
30,5790.191666666667,668.2407407407408,645.8333333333334,102.48371116911403,104.16666666666663
30,5795.191666666667,689.2045454545455,750.0,102.114744344047,50.0
30,5800.191666666667,682.1969696969697,693.75,103.92943387580743,91.66666666666669
30,5805.191666666667,677.7462121212121,650.0,106.25215905170002,110.41666666666669
30,5810.191666666667,681.3888888888889,650.0,106.90565674670562,112.5
30,5815.191666666667,695.2519379844961,766.6666666666667,107.88054566231197,45.83333333333326
30,5820.191666666667,708.531746031746,772.9166666666667,102.7070599327069,27.083333333333258
30,5825.191666666667,695.0581395348837,766.6666666666667,106.0553220148484,45.83333333333326
30,5830.191666666667,718.69918699187,770.8333333333334,97.33034541298711,24.999999999999886
30,5835.191666666667,722.560975609756,770.8333333333334,95.74713337816178,24.999999999999886
30,5840.191666666667,719.4105691056911,775.0,96.96617464038809,20.83333333333337
30,5845.191666666667,722.2560975609755,770.8333333333334,92.94847062247399,20.833333333333258
30,5850.191666666667,719.0476190476189,772.9166666666667,98.6491709226798,22.916666666666515
30,5855.191666666667,719.4105691056911,770.8333333333334,97.97697502730605,29.16666666666663
30,5860.191666666667,703.6821705426357,766.6666666666667,104.09207369832146,33.33333333333326
30,5865.191666666667,709.9806201550387,766.6666666666667,102.91766890651587,33.33333333333326
30,5870.191666666667,709.6899224806201,766.6666666666667,102.92803633229073,33.33333333333326
30,5875.191666666667,703.5852713178294,766.6666666666667,104.24037628357878,33.33333333333326
30,5880.191666666667,696.5116279069766,762.5,103.24565145376445,37.5
30,5885.191666666667,691.0984848484849,756.25,104.36450557297113,43.75
30,5890.191666666667,685.2272727272726,700.0,104.7115768639739,93.75
30,5895.191666666667,691.8604651162791,758.3333333333333,104.54278718381039,45.833333333333485
30,5900.191666666667,692.34496124031,758.3333333333333,104.38837608963337,45.833333333333485
30,5905.191666666667,691.1821705426356,758.3333333333333,104.96207940820864,45.833333333333485
30,5910.191666666667,681.5340909090909,695.8333333333334,107.03378912715652,95.83333333333326
30,5915.191666666667,692.829457364341,762.5,105.0452062446904,41.66666666666674
30,5920.191666666667,709.0277777777777,775.0,102.90050260915982,20.833333333333258
30,5925.191666666667,704.563492063492,764.5833333333334,99.68959923501622,27.083333333333258
30,5930.191666666667,706.6468253968254,768.75,99.23513180995954,22.91666666666663
30,5935.191666666667,709.3992248062015,770.8333333333334,99.3950494036077,20.833333333333258
30,5940.191666666667,720.0396825396825,768.75,92.42680990414337,18.75
30,5945.191666666667,712.9960317460318,768.75,96.1187970929755,22.91666666666663
30,5950.191666666667,713.9880952380953,768.75,95.90542281760028,22.91666666666663
30,5955.191666666667,698.0113636363635,760.4166666666666,104.38731915402577,35.41666666666663
30,5960.191666666667,706.5891472868217,766.6666666666667,105.03696973775199,33.33333333333326
30,5965.191666666667,719.6138211382114,779.1666666666666,99.19486601175198,20.83333333333337
30,5970.191666666667,717.5595238095239,777.0833333333333,100.48382159840331,22.916666666666742
30,5975.191666666667,724.6031746031747,777.0833333333333,97.01598611307213,18.75
30,5980.191666666667,720.436507936508,770.8333333333334,96.53906599604548,20.83333333333337
30,5985.191666666667,731.4024390243902,775.0,88.44773233392449,20.833333333333258
30,5990.191666666667,700.0000000000001,758.3333333333333,97.69584184205341,37.5
30,5995.191666666667,699.9031007751938,758.3333333333333,97.66828667976368,37.5
30,6000.191666666667,712.5992063492064,768.75,97.93985668669337,31.25
30,6005.191666666667,719.410569105691,770.8333333333334,95.18170559485576,29.16666666666663
30,6010.191666666667,721.7479674796748,775.0,95.7178298289011,33.33333333333326
30,6015.191666666667,704.8611111111111,764.5833333333334,102.88815668876181,41.666666666666686
30,6020.191666666667,723.780487804878,775.0,96.76738602775725,29.166666666666742
30,6025.191666666667,721.825396825397,777.0833333333333,101.16952255100902,29.166666666666686
30,6030.191666666667,709.0277777777779,770.8333333333334,104.49710461793698,29.16666666666663
30,6035.191666666667,694.0891472868217,745.8333333333334,106.84351255790214,54.16666666666663
30,6040.191666666667,679.3560606060605,681.25,106.8660115878715,100.0
30,6045.191666666667,692.1401515151516,752.0833333333333,105.91828027840204,50.000000000000114
30,6050.191666666667,673.7037037037037,645.8333333333334,106.52564594287414,104.16666666666674
30,6055.191666666667,659.7222222222223,641.6666666666667,100.79779614193312,100.00000000000011
30,6060.191666666667,669.351851851852,645.8333333333334,101.67146177354525,104.16666666666674
30,6065.191666666667,675.5555555555554,645.8333333333334,103.04548127948752,112.49999999999989
30,6070.191666666667,678.7878787878788,704.1666666666666,102.81415814861909,79.16666666666663
30,6075.191666666667,690.9883720930233,758.3333333333333,100.99099831113372,33.33333333333337
30,6080.191666666667,718.0894308943089,762.5,90.68417491462223,25.0
30,6085.191666666667,718.6507936507936,762.5,91.93069005736064,20.83333333333337
30,6090.191666666667,721.1382113821138,762.5,89.5997574280495,20.833333333333258
30,6095.191666666667,727.6422764227642,766.6666666666667,90.68966130723877,20.833333333333258
30,6100.191666666667,732.7235772357724,775.0,88.52848419322527,20.833333333333258
30,6105.191666666667,716.8650793650793,766.6666666666667,97.5085656587298,29.166666666666515
30,6110.191666666667,706.782945736434,766.6666666666667,103.16592003527376,29.166666666666515
30,6115.191666666667,726.1178861788618,779.1666666666666,99.19828098240664,16.66666666666663
30,6120.191666666667,710.3682170542636,775.0,105.52437441379439,25.0
30,6125.191666666667,710.2182539682541,770.8333333333334,101.47624101553996,29.16666666666663
30,6130.191666666667,710.2713178294574,775.0,101.82831296730272,25.0
30,6135.191666666667,712.3015873015872,777.0833333333333,102.74415852611847,22.916666666666742
30,6140.191666666667,714.2857142857143,783.3333333333334,101.51354112695105,14.583333333333314
30,6145.191666666667,691.0984848484849,772.9166666666667,105.16226122655132,29.166666666666572
30,6150.191666666667,695.2519379844961,754.1666666666666,100.88309392725169,37.5
30,6155.191666666667,700.5813953488371,754.1666666666666,103.24825845087616,54.16666666666674
30,6160.191666666667,710.4166666666667,770.8333333333334,104.64018391340345,41.66666666666663
30,6165.191666666667,722.4593495934959,775.0,97.93385509056473,33.33333333333337
30,6170.191666666667,720.3373015873016,775.0,99.90341872678722,35.416666666666686
30,6175.191666666667,733.8414634146341,779.1666666666666,93.45878437414949,29.166666666666742
30,6180.191666666667,727.3373983739837,779.1666666666666,101.38386546934761,29.166666666666742
30,6185.191666666667,723.9087301587301,779.1666666666666,99.58866759452765,20.83333333333337
30,6190.191666666667,710.4166666666666,775.0,100.1745174337737,18.75
30,6195.191666666667,689.1098484848486,712.5,104.30113765809256,79.16666666666663
30,6200.191666666667,684.8837209302326,666.6666666666666,105.6991371101251,116.66666666666663
30,6205.191666666667,683.4302325581396,666.6666666666666,104.41038303442029,116.66666666666663
30,6210.191666666667,696.9961240310078,750.0,104.30279034889841,58.33333333333337
30,6215.191666666667,678.4090909090909,702.0833333333333,104.23165696354548,89.58333333333337
30,6220.191666666667,680.3030303030303,689.5833333333333,96.47938469015166,89.58333333333326
30,6225.191666666667,704.9418604651163,700.0,115.10525367206867,83.33333333333326
30,6230.191666666667,699.1279069767442,687.5,108.97459073050024,54.16666666666674
30,6235.191666666667,694.6022727272729,679.1666666666667,100.41732825481881,33.33333333333337
30,6240.191666666667,697.9651162790699,670.8333333333333,110.0609052056266,29.166666666666742
30,6245.191666666667,712.6984126984127,666.6666666666666,115.23494462854434,22.91666666666663
30,6250.191666666667,725.0992063492063,668.75,123.87532010696916,31.25
30,6255.191666666667,700.5952380952382,664.5833333333333,121.82475052824792,35.416666666666686
30,6260.191666666667,708.7209302325581,670.8333333333333,129.47931297316552,37.500000000000114
30,6265.191666666667,706.3492063492064,664.5833333333333,140.25551986646835,64.58333333333337
30,6270.191666666667,707.2674418604652,695.8333333333333,147.77083976225097,74.99999999999989
30,6275.191666666667,698.4126984126984,695.8333333333333,155.79629896915642,77.0833333333332
30,6280.191666666667,694.3798449612403,695.8333333333333,159.8788493278872,74.99999999999989
30,6285.191666666667,688.2575757575758,697.9166666666666,153.56254125156994,68.75
30,6290.191666666667,685.4651162790699,700.0,150.2240723129984,75.0
30,6295.191666666667,696.0271317829457,704.1666666666667,157.85735025461486,70.83333333333348
30,6300.191666666667,695.15503875969,708.3333333333334,145.92664314316576,41.66666666666663
30,6305.191666666667,678.425925925926,704.1666666666667,136.67477597687045,45.83333333333326
30,6310.191666666667,669.4444444444443,704.1666666666667,127.4662016997352,70.83333333333326
30,6315.191666666667,680.6818181818182,704.1666666666667,124.81928444860092,54.166666666666515
30,6320.191666666667,678.3333333333334,704.1666666666667,128.04559931934602,54.166666666666515
30,6325.191666666667,673.9814814814814,704.1666666666667,124.83940300726323,62.5
30,6330.191666666667,673.4848484848485,704.1666666666667,128.14547217515957,66.66666666666663
30,6335.191666666667,692.8977272727273,718.75,133.45918099602818,47.91666666666674
30,6340.191666666667,683.6174242424244,704.1666666666667,134.1556453634183,52.0833333333332
30,6345.191666666667,674.9999999999999,700.0,137.56018180262433,62.5
30,6350.191666666667,690.0193798449612,704.1666666666667,144.45247478884576,41.66666666666663
30,6355.191666666667,698.1589147286821,716.6666666666666,141.97941180900182,33.33333333333326
30,6360.191666666667,682.1969696969696,704.1666666666667,133.04645626805484,41.66666666666663
30,6365.191666666667,677.6515151515151,700.0,134.89004910106655,43.75000000000006
30,6370.191666666667,686.5310077519381,691.6666666666666,127.91843494881383,37.5
30,6375.191666666667,689.5833333333335,693.75,122.46294857061797,29.166666666666686
30,6380.191666666667,681.9128787878789,687.5,120.51697152100522,22.916666666666686
30,6385.191666666667,668.371212121212,683.3333333333334,107.14659392009376,25.0
30,6390.191666666667,660.1449275362319,677.0833333333334,125.74055990728331,33.333333333333314
30,6395.191666666667,675.0946969696969,679.1666666666667,135.48556278497665,35.41666666666663
30,6400.191666666667,674.9074074074074,683.3333333333334,137.77374291501474,54.16666666666663
30,6405.191666666667,686.7424242424244,689.5833333333333,149.27492911817788,58.33333333333337
30,6410.191666666667,690.4356060606061,702.0833333333334,150.4960025734246,56.24999999999994
30,6415.191666666667,698.4848484848484,708.3333333333334,161.68197729059557,41.66666666666663
30,6420.191666666667,705.3571428571429,718.75,149.9782214154932,27.08333333333337
30,6425.191666666667,696.7054263565892,716.6666666666666,128.2177062965518,20.83333333333337
30,6430.191666666667,708.3333333333333,722.9166666666667,125.00677488415447,18.75
30,6435.191666666667,705.8531746031747,720.8333333333334,106.84190510353629,18.75
30,6440.191666666667,706.2500000000001,720.8333333333334,86.65264309618928,12.5
30,6445.191666666667,689.2441860465116,716.6666666666666,75.72528801195585,20.83333333333337
30,6450.191666666667,690.056818181818,716.6666666666666,75.45734752892218,16.66666666666663
30,6455.191666666667,692.3295454545455,720.8333333333334,78.40537252062936,25.0
30,6460.191666666667,674.6212121212121,712.5,87.41837361814628,27.08333333333337
30,6465.191666666667,655.9782608695652,710.4166666666667,99.27846240325806,35.41666666666663
30,6470.191666666667,652.1739130434781,700.0,96.97484054851317,45.83333333333337
30,6475.191666666667,651.4492753623189,679.1666666666667,109.09354842567551,66.66666666666663
30,6480.191666666667,662.4074074074074,683.3333333333334,113.47601621935178,58.33333333333337
30,6485.191666666667,648.6413043478261,675.0,113.17545630727376,66.66666666666669
30,6490.191666666667,658.6050724637681,672.9166666666666,123.52338389454876,58.33333333333337
30,6495.191666666667,682.5757575757577,681.25,128.64288878647764,27.08333333333337
30,6500.191666666667,687.6893939393939,679.1666666666667,138.21301665454945,25.000000000000057
30,6505.191666666667,711.0119047619048,687.5,146.33283049368734,27.083333333333314
30,6510.191666666667,703.3914728682171,687.5,142.3891933605716,29.16666666666663
30,6515.191666666667,715.3769841269842,687.5,160.58119821095792,33.33333333333337
30,6520.191666666667,698.2558139534884,687.5,157.75330411366787,50.0
30,6525.191666666667,682.4810606060605,683.3333333333334,150.82026889289938,68.74999999999994
30,6530.191666666667,680.8712121212121,695.8333333333333,147.5338784884874,85.41666666666669
30,6535.191666666667,674.8148148148148,700.0,125.32141617174089,79.16666666666663
30,6540.191666666667,682.1969696969697,704.1666666666667,128.04231713649912,81.25
30,6545.191666666667,673.8636363636364,718.75,104.81528155005674,72.91666666666663
30,6550.191666666667,701.2596899224807,758.3333333333333,101.1856582571789,33.33333333333337
30,6555.191666666667,720.7317073170731,770.8333333333334,95.64514042113619,20.833333333333258
30,6560.191666666667,714.186507936508,764.5833333333333,98.5972907765912,27.08333333333337
30,6565.191666666667,719.6138211382114,770.8333333333334,95.62588009053528,20.83333333333337
30,6570.191666666667,721.3414634146341,775.0,95.44848051304601,20.833333333333258
30,6575.191666666667,732.6219512195121,779.1666666666666,88.62325867581143,12.5
30,6580.191666666667,720.2235772357723,775.0,92.81272669075271,20.83333333333337
30,6585.191666666667,720.734126984127,766.6666666666667,110.98035703245522,29.16666666666663
30,6590.191666666667,724.5934959349593,766.6666666666667,107.20487945453691,25.0
30,6595.191666666667,700.0,750.0,117.83008347374013,54.16666666666674
30,6600.191666666667,706.3953488372093,750.0,130.72646541890586,54.16666666666674
30,6605.191666666667,713.5912698412698,750.0,129.51879462227785,54.16666666666674
30,6610.191666666667,704.3604651162791,750.0,132.14047724986025,54.16666666666674
30,6615.191666666667,688.4469696969697,747.9166666666667,120.90803503630411,60.41666666666663
30,6620.191666666667,692.1511627906976,750.0,124.3774487353183,62.5
30,6625.191666666667,705.3294573643411,758.3333333333333,122.9774385057868,50.000000000000114
30,6630.191666666667,689.2441860465117,745.8333333333334,111.18511631983172,62.5
30,6635.191666666667,681.9128787878789,668.75,111.6948043262697,122.91666666666669
30,6640.191666666667,685.7954545454545,668.75,111.3486090784983,122.91666666666669
30,6645.191666666667,692.4418604651164,716.6666666666666,108.09365968539102,83.33333333333337
30,6650.191666666667,690.340909090909,735.4166666666666,105.49644515941377,68.75000000000011
30,6655.191666666667,700.9689922480621,741.6666666666667,122.04454937234983,62.5
30,6660.191666666667,712.1031746031746,747.9166666666667,127.25542966773554,62.5
30,6665.191666666667,710.9126984126984,745.8333333333334,126.18997399442799,56.25
30,6670.191666666667,724.390243902439,754.1666666666666,121.64083978022768,41.66666666666663
30,6675.191666666667,727.2357723577236,750.0,121.52852303294523,45.83333333333326
30,6680.191666666667,730.691056910569,750.0,120.99040114001473,45.83333333333326
30,6685.191666666667,706.6468253968254,743.75,107.85565232125559,58.33333333333337
30,6690.191666666667,690.1515151515151,739.5833333333334,99.69304840087756,64.58333333333337
30,6695.191666666667,684.375,693.75,102.39037829397576,95.83333333333331
30,6700.191666666667,681.9128787878789,693.75,100.9681140897347,87.5
30,6705.191666666667,684.564393939394,693.75,102.82107471509573,93.75
30,6710.191666666667,678.219696969697,685.4166666666667,102.52333050626697,95.83333333333326
30,6715.191666666667,690.0193798449613,737.5,100.17816278021348,58.33333333333326
30,6720.191666666667,704.2635658914729,762.5,102.64156717873901,41.66666666666663
30,6725.191666666667,709.2054263565891,762.5,103.31220237866273,41.66666666666674
30,6730.191666666667,711.5079365079364,777.0833333333333,105.21951471537473,31.250000000000114
30,6735.191666666667,714.0873015873016,779.1666666666667,106.33695382178543,29.16666666666663
30,6740.191666666667,721.031746031746,783.3333333333334,101.1115072975778,25.000000000000057
30,6745.191666666667,735.060975609756,791.6666666666666,101.80649370863634,20.83333333333337
30,6750.191666666667,732.7083333333333,789.5833333333333,99.64122785147364,20.833333333333428
30,6755.191666666667,731.8089430894308,787.5,98.78496259395124,29.16666666666663
30,6760.191666666667,744.7154471544715,791.6666666666666,96.82917549810219,29.16666666666663
30,6765.191666666667,747.7083333333333,787.5,90.5622572372036,33.33333333333326
30,6770.191666666667,752.7083333333333,800.0,95.94498327069952,25.0
30,6775.191666666667,746.0365853658537,787.5,93.77754789479137,33.33333333333326
30,6780.191666666667,741.1585365853658,783.3333333333334,99.08082384836906,37.499999999999886
30,6785.191666666667,739.6875,785.4166666666667,99.58061765420598,35.416666666666515
30,6790.191666666667,723.4756097560976,766.6666666666667,98.14139148991742,41.66666666666663
30,6795.191666666667,724.5039682539683,772.9166666666667,103.189327193957,41.66666666666657
30,6800.191666666667,698.4126984126984,752.0833333333333,103.66322399124547,66.66666666666669
30,6805.191666666667,695.2519379844962,750.0,108.03370268331527,70.83333333333326
30,6810.191666666667,706.6468253968254,758.3333333333333,107.67883720372359,62.5
30,6815.191666666667,713.1944444444443,764.5833333333334,106.09362662601104,56.249999999999886
30,6820.191666666667,724.6031746031746,779.1666666666666,104.2898033323823,39.583333333333314
